Wavelengt [nm],s1.2,s2.2,s3.2,s4.2
200.0,5.597638955718795e-22,9.503814951239396e-22,1.7477755225971924e-21,3.203614200062842e-21
200.2,5.772851578333512e-22,1.0008733130038343e-21,1.8667194132463207e-21,3.35888257319878e-21
200.4,6.328679928843584e-22,1.0691916306874794e-21,2.0594285066677657e-21,3.702553513241601e-21
200.6,6.906612025591205e-22,1.1601167386250417e-21,2.2049598552266995e-21,4.174523133816102e-21
200.8,7.346530487294619e-22,1.2715572597445728e-21,2.359486960221281e-21,4.616055529880085e-21
201.0,7.974061234136253e-22,1.3573037196944537e-21,2.564390301255494e-21,4.8541593874433846e-21
201.2,8.410745001268316e-22,1.4385686573473023e-21,2.757099394676939e-21,5.138882285079758e-21
201.4,8.67491172459512e-22,1.5178418073125812e-21,2.894634515293074e-21,5.386618175716006e-21
201.6,8.962260425683257e-22,1.5904424685245011e-21,3.0017839697265747e-21,5.536877891654011e-21
201.8,9.215105718010342e-22,1.6494989734609465e-21,3.1023365361072664e-21,5.860514202905097e-21
202.0,9.540192522430878e-22,1.7199086682165394e-21,3.2340743914648722e-21,6.230769554229258e-21
202.2,9.880913683946266e-22,1.785139714984451e-21,3.392399704732284e-21,6.500851761594748e-21
202.4,1.0196835520414648e-21,1.8155144772198906e-21,3.5061460472185935e-21,6.708518394647529e-21
202.6,1.058014682711946e-21,1.849076099755442e-21,3.607298330694994e-21,6.898847368169002e-21
202.8,1.080118428949495e-21,1.908232194076266e-21,3.749031470981099e-21,7.07299452612792e-21
203.0,1.0954293165872117e-21,1.9786418888318588e-21,3.842587337911842e-21,7.208613551795041e-21
203.2,1.1305257526863444e-21,2.0393914133027388e-21,3.883967817515824e-21,7.358873267733046e-21
203.4,1.1654604540569094e-21,2.0399889496090095e-21,3.966528871025219e-21,7.52993817510862e-21
203.6,1.1883189623611065e-21,2.03929182391836e-21,4.0548871897931436e-21,7.629340756421455e-21
203.8,1.2037915847273907e-21,2.097452024395399e-21,4.07427804255443e-21,7.728743337734287e-21
204.0,1.2213128469888624e-21,2.1366902418405244e-21,4.13205078944115e-21,7.822366699203352e-21
204.2,1.2277283245553704e-21,2.171048579451104e-21,4.2382007153817995e-21,7.914063654057828e-21
204.4,1.237648054574173e-21,2.1736379034449445e-21,4.335554790585372e-21,8.101310376995956e-21
204.6,1.2512876833500266e-21,2.1975393556957823e-21,4.373137061916526e-21,8.230764901496391e-21
204.8,1.2608300323355046e-21,2.253906947254008e-21,4.381733006955034e-21,8.319764887090441e-21
205.0,1.2793217029683813e-21,2.2654593158419132e-21,4.415517070013358e-21,8.416855780465766e-21
205.2,1.2942012979965847e-21,2.294838184233568e-21,4.46189519208159e-21,8.459236725986743e-21
205.4,1.3078409267724382e-21,2.3141585248029953e-21,4.508073408451251e-21,8.491215075788932e-21
205.6,1.3098895666676257e-21,2.3115692008091544e-21,4.520067750365449e-21,8.572124153601703e-21
205.8,1.300239394529769e-21,2.3406493010476737e-21,4.541857471509574e-21,8.647639292893623e-21
206.0,1.3170598063007818e-21,2.365048700220404e-21,4.597231350013455e-21,8.683085174602076e-21
206.2,1.3530188276189406e-21,2.387157543552429e-21,4.6340139985503276e-21,8.708513741914662e-21
206.4,1.3646098164996067e-21,2.400502521059147e-21,4.673995138264321e-21,8.773626285487798e-21
206.6,1.362884646061554e-21,2.392236602155732e-21,4.718174297648283e-21,8.927353533332064e-21
206.8,1.3699470625423318e-21,2.4519902327828267e-21,4.7497593980223366e-21,8.997089452780214e-21
207.0,1.3869831206181013e-21,2.4744974336523658e-21,4.8143289386604356e-21,9.01866520686362e-21
207.2,1.3943150949798247e-21,2.4641401376770027e-21,4.818327052631834e-21,9.121920601405633e-21
207.4,1.3997601641749283e-21,2.4805723860994538e-21,4.825123846383213e-21,9.183565613072506e-21
207.6,1.4108120372937026e-21,2.4807715648682106e-21,4.902687257428359e-21,9.128085102572322e-21
207.8,1.4150171402364559e-21,2.5003906735907734e-21,4.9232775443810656e-21,9.128470383895239e-21
208.0,1.4347487771216827e-21,2.5289728269074006e-21,4.9012879175383696e-21,9.179712799843328e-21
208.2,1.4316758172789016e-21,2.5357449050451376e-21,4.876699516614264e-21,9.284124038354094e-21
208.4,1.4140467318650513e-21,2.542317804414118e-21,4.894691029485561e-21,9.388535276864861e-21
208.6,1.4303280278741726e-21,2.570302421424474e-21,4.9080847112897486e-21,9.327275546520906e-21
208.8,1.4536717403640722e-21,2.5682110443525258e-21,4.948665568099451e-21,9.33228420371884e-21
209.0,1.4527552435688566e-21,2.5523763322363454e-21,5.001240766823351e-21,9.417046094760792e-21
209.2,1.4461780312737811e-21,2.565024184052414e-21,4.992245010387703e-21,9.424366439896233e-21
209.4,1.441649458873893e-21,2.5752818906433985e-21,5.00723793778045e-21,9.4494097258859e-21
209.6,1.4447763302928632e-21,2.586834259231304e-21,5.021431242378917e-21,9.525310146500738e-21
209.8,1.4606263336924714e-21,2.5930088010627697e-21,5.047618888891583e-21,9.53070408502159e-21
210.0,1.4741042277397577e-21,2.58573877600314e-21,5.095396350849805e-21,9.511440018875692e-21
210.2,1.4597637484734453e-21,2.5860375441562755e-21,5.12018465747248e-21,9.537639148834112e-21
210.4,1.4589550748306082e-21,2.5970919658222883e-21,5.121583997362469e-21,9.5588296215946e-21
210.6,1.479171915901537e-21,2.618304504694907e-21,5.093797105261244e-21,9.557288496302928e-21
210.8,1.489307292225096e-21,2.6260724766764287e-21,5.107990409859712e-21,9.58926684610512e-21
211.0,1.4891994690727178e-21,2.631151535279732e-21,5.1527692863393835e-21,9.676340425084578e-21
211.2,1.4900081427155548e-21,2.6530611998430003e-21,5.154368531927943e-21,9.705621805626343e-21
211.4,1.4984722601772505e-21,2.6383219709549833e-21,5.163764099760732e-21,9.692136959324216e-21
211.6,1.5039712409485431e-21,2.63921827541439e-21,5.17475891318208e-21,9.753011408345253e-21
211.8,1.491517666848851e-21,2.671086878415507e-21,5.1503704179565444e-21,9.796548197834983e-21
212.0,1.4805736168824548e-21,2.6679996074997734e-21,5.1453727754922956e-21,9.821206202501732e-21
212.2,1.504294710405678e-21,2.6782573140907582e-21,5.17435910178494e-21,9.827755984991338e-21
212.4,1.523810700986148e-21,2.69528709881948e-21,5.189152123479118e-21,9.816197545303799e-21
212.6,1.5207377411433669e-21,2.6915027022130976e-21,5.2315321315759494e-21,9.827755984991338e-21
212.8,1.5153465835244524e-21,2.6804482805470852e-21,5.2453256247772766e-21,9.797704041803736e-21
213.0,1.5254280482718223e-21,2.689311735756771e-21,5.22913326319311e-21,9.833920486158024e-21
213.2,1.5346469278001659e-21,2.7113209897044176e-21,5.250723078638666e-21,9.896721341793652e-21
213.4,1.5170178423863158e-21,2.711022221551282e-21,5.2753114795627715e-21,9.914444282647879e-21
213.6,1.5141066172721021e-21,2.7049472691041938e-21,5.255720721102915e-21,9.926002722335416e-21
213.8,1.5357790709001379e-21,2.6965817608164006e-21,5.251722607131516e-21,9.994968079137732e-21
214.0,1.5441892767856443e-21,2.7029554814166243e-21,5.277910253644181e-21,1.0015002707929467e-20
214.2,1.5465613861379666e-21,2.71640004830772e-21,5.2743119510699215e-21,9.94989016435633e-21
214.4,1.5424641063475918e-21,2.722275821986051e-21,5.286106387285549e-21,1.0001517861627336e-20
214.6,1.539606792809567e-21,2.7101259170918753e-21,5.310294976812515e-21,1.0053530840221262e-20
214.8,1.5393372349286215e-21,2.7089308444793334e-21,5.3508758336222174e-21,1.0068942093137981e-20
215.0,1.5351860435620573e-21,2.7389072491772593e-21,5.377063480134883e-21,1.0110552476013121e-20
215.2,1.5411702285190522e-21,2.752451405452734e-21,5.3620705527421364e-21,1.0143686669784065e-20
215.4,1.5474778829331822e-21,2.762808701428097e-21,5.3944552759104704e-21,1.0157942078732028e-20
215.6,1.554162918380636e-21,2.763107469581233e-21,5.4258404705859544e-21,1.0106699662783942e-20
215.8,1.5724928542849447e-21,2.7438867183961836e-21,5.39245621892477e-21,1.006701568652339e-20
216.0,1.5731937047754037e-21,2.7457789166993752e-21,5.3796622542162924e-21,1.0065474561231718e-20
216.2,1.562411389537575e-21,2.757729642824794e-21,5.366268572412106e-21,1.0034266774075365e-20
216.4,1.5590149602376588e-21,2.7630078801968542e-21,5.3656688553163954e-21,1.0055071965512934e-20
216.6,1.568018193461246e-21,2.783921650916337e-21,5.405649995030388e-21,1.0107084944106859e-20
216.8,1.5786926855466965e-21,2.804536653482685e-21,5.408648580508937e-21,1.0085123908700534e-20
217.0,1.5762666646181848e-21,2.7754565532441657e-21,5.3944552759104704e-21,1.0032725648783693e-20
217.2,1.5743258478753757e-21,2.7772491621629783e-21,5.401052163963279e-21,9.994968079137732e-21
217.4,1.5838681968608542e-21,2.810014069623502e-21,5.431637735844483e-21,9.910591469418698e-21
217.6,1.5941653079129806e-21,2.8112091422360438e-21,5.438434529595862e-21,9.83854386203304e-21
217.8,1.5942731310653589e-21,2.8259483711240604e-21,5.434836227021603e-21,9.803483261647507e-21
218.0,1.5925479606273063e-21,2.83720197155883e-21,5.476416612324155e-21,9.656691077615763e-21
218.2,1.5876420071940943e-21,2.8448703541559735e-21,5.4780158579127145e-21,9.488708420823532e-21
218.4,1.5897445586654707e-21,2.8282389269647656e-21,5.4188437711360055e-21,9.31340541889586e-21
218.6,1.599125172922382e-21,2.792486337972887e-21,5.4282393389687935e-21,9.082236625145084e-21
218.8,1.6012816359699476e-21,2.7971670390386765e-21,5.472618404051326e-21,8.91656565629036e-21
219.0,1.595728743622466e-21,2.8343138794118537e-21,5.44842981452436e-21,8.74665659288354e-21
219.2,1.5867794219750679e-21,2.852638326137496e-21,5.424041319298824e-21,8.556327619362068e-21
219.4,1.5930870763891978e-21,2.846961731227922e-21,5.447030474634371e-21,8.281236754798644e-21
219.6,1.6038693916270265e-21,2.8391937592464e-21,5.4838131231712435e-21,7.963764944714246e-21
219.8,1.611147454412561e-21,2.8421814407777544e-21,5.485612274458374e-21,7.71140567820298e-21
220.0,1.6257035799836297e-21,2.8534350412125243e-21,5.491209634018333e-21,7.440552908191654e-21
220.2,1.6217141233456331e-21,2.8572194378189068e-21,5.5125995437653185e-21,7.164306199659476e-21
220.4,1.6287226282502219e-21,2.8553272395157155e-21,5.492608973908322e-21,6.880739145991857e-21
220.6,1.6395049434880506e-21,2.8443724072340814e-21,5.464622176108527e-21,6.622600659636824e-21
220.8,1.6282913356407087e-21,2.842081851393376e-21,5.4360356612130226e-21,6.368700267833888e-21
221.0,1.6158377615410164e-21,2.8563231333595003e-21,5.4314378301459136e-21,6.110947062801772e-21
221.2,1.616430788879097e-21,2.8535346305969025e-21,5.4614236849314085e-21,5.855120264384247e-21
221.4,1.6266739883550344e-21,2.8624976751909665e-21,5.465821610299947e-21,5.613934156237603e-21
221.6,1.6330355543453533e-21,2.876838546541469e-21,5.4696198185727766e-21,5.390085707622268e-21
221.8,1.6329816427691641e-21,2.854430935056309e-21,5.434436415624463e-21,5.1550641006423126e-21
222.0,1.6287765398264108e-21,2.8439740496965674e-21,5.39545480440332e-21,4.952406124787465e-21
222.2,1.6360546026119453e-21,2.8752451163914137e-21,5.359271872962156e-21,4.742813085120095e-21
222.4,1.6362163373405129e-21,2.8875942000543466e-21,5.294302520926918e-21,4.5193499178276775e-21
222.6,1.6365937183738367e-21,2.890183524048187e-21,5.247724493160117e-21,4.308986315514471e-21
222.8,1.6388580045737807e-21,2.8665808399504847e-21,5.187952689287698e-21,4.129445219034701e-21
223.0,1.6344911669024601e-21,2.852239968599982e-21,5.084601443127026e-21,3.933337025669459e-21
223.2,1.6301243292311394e-21,2.8746475800851422e-21,4.936271414788113e-21,3.743393333470905e-21
223.4,1.6302321523835177e-21,2.86687960810362e-21,4.806132805019067e-21,3.59506002414749e-21
223.6,1.637833684626187e-21,2.8726557923975728e-21,4.6985835391884266e-21,3.4390210883657154e-21
223.8,1.6429552843641557e-21,2.893071616195163e-21,4.563847098352271e-21,3.2883760911047934e-21
224.0,1.651311578673473e-21,2.8793282811509315e-21,4.410319521850539e-21,3.131181311354265e-21
224.2,1.6419848759927512e-21,2.868672217022433e-21,4.2471964718174485e-21,2.997873973624651e-21
224.4,1.6375102151690521e-21,2.8771373146946046e-21,4.067281343104482e-21,2.8645666358950367e-21
224.6,1.6638729759255435e-21,2.8800254068415813e-21,3.9057575386599504e-21,2.7293328915508327e-21
224.8,1.659613961406601e-21,2.8793282811509315e-21,3.759026755909597e-21,2.606042868217085e-21
225.0,1.6446265432260193e-21,2.8736516862413575e-21,3.6102969161735445e-21,2.4946965658937943e-21
225.2,1.6425239917546426e-21,2.87942787053531e-21,3.4401771666905054e-21,2.3783416063725704e-21
225.4,1.6449500126831542e-21,2.882216373297908e-21,3.2684581716189064e-21,2.2639130534659362e-21
225.6,1.6634955948922195e-21,2.87942787053531e-21,3.122527011662833e-21,2.1637399095072664e-21
225.8,1.6708814808301322e-21,2.8628960327284805e-21,2.9927882132909265e-21,2.061640358934007e-21
226.0,1.6615547781494102e-21,2.851443253524954e-21,2.8632493206175895e-21,1.9710992480482864e-21
226.2,1.654330626940065e-21,2.8655849461067e-21,2.719916934742926e-21,1.8774758865792218e-21
226.4,1.6541688922114974e-21,2.8928724374264063e-21,2.592776910452429e-21,1.796952090089368e-21
226.6,1.6471603873069089e-21,2.8908806497388365e-21,2.456841035424854e-21,1.7110343550786628e-21
226.8,1.6405292634356443e-21,2.867178376256756e-21,2.3303007282300667e-21,1.6255019013908756e-21
227.0,1.6449500126831542e-21,2.840090063705806e-21,2.2255501421794057e-21,1.5530690126822989e-21
227.2,1.6542228037876867e-21,2.84576665861538e-21,2.124997575798714e-21,1.4860300624945737e-21
227.4,1.6593983151018445e-21,2.8481568038404642e-21,2.0206468011451927e-21,1.4147530177547512e-21
227.6,1.6553010353114696e-21,2.8240561728208692e-21,1.920693951860211e-21,1.346558223598272e-21
227.8,1.6558940626495502e-21,2.801051025029438e-21,1.8341347843794168e-21,1.2941599636814293e-21
228.0,1.6603148118970599e-21,2.7523518160683554e-21,1.7325826895058754e-21,1.2363677652437354e-21
228.2,1.6550314774305239e-21,2.6995694423477555e-21,1.6432248422451014e-21,1.1754933162226975e-21
228.4,1.6527132796543908e-21,2.6378240240330908e-21,1.5654615255013856e-21,1.1238656189516909e-21
228.6,1.6461899789355045e-21,2.572294209112044e-21,1.4886977372505196e-21,1.0757054535869458e-21
228.8,1.6445187200736407e-21,2.5054697321940763e-21,1.4115341376025136e-21,1.024848318961775e-21
229.0,1.6447343663783976e-21,2.4219142387005226e-21,1.336969312035917e-21,9.75532309628276e-22
229.2,1.6469986525783416e-21,2.3336780441411795e-21,1.2702008087135492e-21,9.431686785031673e-22
229.4,1.6609078392351406e-21,2.2477324054225416e-21,1.21102872193684e-21,9.104197660551408e-22
229.6,1.6608000160827624e-21,2.1552138673349236e-21,1.1520565408587009e-21,8.711210711175087e-22
229.8,1.6450578358355323e-21,2.070264122460071e-21,1.0930843597805614e-21,8.456925038049234e-22
230.0,1.6405292634356443e-21,1.9809324446725644e-21,1.0463064263151898e-21,8.117877473881428e-22
230.2,1.6518506944353645e-21,1.8906048730412733e-21,9.955303788784191e-22,7.70947927158839e-22
230.4,1.649802054540177e-21,1.8002773014099818e-21,9.46553482728778e-22,7.381990147108124e-22
230.6,1.6448961011069649e-21,1.7177177017602128e-21,8.991758321676966e-22,7.1431157268989885e-22
230.8,1.6426318149070209e-21,1.6392412668699616e-21,8.571956354680043e-22,6.946622252210828e-22
231.0,1.6357311331548104e-21,1.5537935750732165e-21,8.134162874811822e-22,6.64225000710564e-22
231.2,1.635569398426243e-21,1.4839814166238943e-21,7.724356192743397e-22,6.326319322312913e-22
231.4,1.6278061314550064e-21,1.4171569397059268e-21,7.382517448188759e-22,6.141384287312291e-22
231.6,1.626188784169332e-21,1.3469464237190907e-21,7.032682475691323e-22,5.933332372936592e-22
231.8,1.6319034112453813e-21,1.2779309803447963e-21,6.7088352440079815e-22,5.682899513039917e-22
232.0,1.6383188888118893e-21,1.2195716010990006e-21,6.424969152038633e-22,5.521081357414375e-22
232.2,1.6286687166740325e-21,1.1653949759971014e-21,6.15909457294058e-22,5.316882256267856e-22
232.4,1.6174551088266906e-21,1.1067368285981704e-21,5.851239797142837e-22,5.124241594808875e-22
232.6,1.6137352100696398e-21,1.0523610247275142e-21,5.589363332016185e-22,4.958570625954152e-22
232.8,1.5957826551986549e-21,1.0053548353008667e-21,5.389457633446221e-22,4.812163723245327e-22
233.0,1.5806335022895056e-21,9.600416654086531e-22,5.163564194062161e-22,4.661904007307322e-22
233.2,1.5641904715518169e-21,9.149276742851966e-22,4.931673583721004e-22,4.515497104598497e-22
233.4,1.5448901272761034e-21,8.726021859243381e-22,4.751758455008037e-22,4.38835426803557e-22
233.6,1.5230559389195e-21,8.323680746354277e-22,4.56984426930937e-22,4.268917057931003e-22
233.8,1.491248108967905e-21,7.973126113341989e-22,4.379933855667904e-22,4.161038287513974e-22
234.0,1.4509761615546147e-21,7.6046453911415715e-22,4.1780291001122407e-22,4.0261898244926873e-22
234.2,1.414639759203132e-21,7.281975785755261e-22,4.022102655227669e-22,3.9491335599090954e-22
234.4,1.375338220161246e-21,6.96727333111923e-22,3.882168666228695e-22,3.8682244820963238e-22
234.6,1.326548243710071e-21,6.616718698106941e-22,3.7222441073727237e-22,3.7295232058458578e-22
234.8,1.2764104778541673e-21,6.291061411189276e-22,3.5763129474166504e-22,3.644761314803907e-22
235.0,1.2323647201076369e-21,6.012211134929501e-22,3.4203865025320788e-22,3.590821929595392e-22
235.2,1.1797470217470326e-21,5.731369070982157e-22,3.2884487414759027e-22,3.4790903459491838e-22
235.4,1.1276145275721307e-21,5.453514688566166e-22,3.158510037405426e-22,3.3866228284488732e-22
235.6,1.0826522730303847e-21,5.246368769058906e-22,3.0365675612777484e-22,3.3442418829278975e-22
235.8,1.0394691005028806e-21,5.021296760363516e-22,2.932616598021367e-22,3.298008124177742e-22
236.0,9.946685806897022e-22,4.788257600917847e-22,2.848656204621982e-22,3.1785709140731745e-22
236.2,9.49975884028902e-22,4.566173273753812e-22,2.746704298351301e-22,3.0783977701145044e-22
236.4,9.116447533584209e-22,4.37296986805954e-22,2.6427533350949203e-22,3.0437224510518883e-22
236.6,8.748770583974248e-22,4.1947048700220406e-22,2.5687882266240336e-22,3.03216401136435e-22
236.8,8.3757024767453735e-22,4.004489145859123e-22,2.498821232124546e-22,2.978224626155835e-22
237.0,7.98106973904084e-22,3.8202487847589146e-22,2.392871211882465e-22,2.893462735113884e-22
237.2,7.640348577525452e-22,3.645967362096555e-22,2.31090987546878e-22,2.8009952176135733e-22
237.4,7.2715933963917085e-22,3.479653090184475e-22,2.240942880969293e-22,2.758614272092597e-22
237.6,6.907151141353096e-22,3.3163264998037504e-22,2.1629796585270073e-22,2.708527700113263e-22
237.8,6.592307536408498e-22,3.1709259986111533e-22,2.1130032338845162e-22,2.658441128133928e-22
238.0,6.295254751606316e-22,3.0414597989191147e-22,2.0330409544565306e-22,2.604501742925413e-22
238.2,6.007906050518179e-22,2.9269320068838503e-22,1.943083390100047e-22,2.5929433032378746e-22
238.4,5.707079455382757e-22,2.790494550285318e-22,1.899104136414655e-22,2.554415170946078e-22
238.6,5.44938212119865e-22,2.6809462274689774e-22,1.8571239397149625e-22,2.4735060931333065e-22
238.8,5.176050429919691e-22,2.565422541589928e-22,1.795153173158274e-22,2.4349779608415106e-22
239.0,4.932909221306653e-22,2.446911174179524e-22,1.7531729764585816e-22,2.384891388862176e-22
239.2,4.724271421454667e-22,2.3582766220826666e-22,1.7271852356444863e-22,2.350216069799559e-22
239.4,4.514555390078898e-22,2.278605114579874e-22,1.695200323873292e-22,2.3386576301120203e-22
239.6,4.305917590226911e-22,2.1959459255457265e-22,1.641225785259402e-22,2.3116879375077633e-22
239.8,4.095662443089251e-22,2.1043236919175144e-22,1.5872512466455116e-22,2.2616013655284285e-22
240.0,3.9226062835220993e-22,2.0266439721022916e-22,1.5432719929601198e-22,2.2538957390700694e-22
240.2,3.753323934288188e-22,1.9658944476314122e-22,1.5332767080316216e-22,2.2693069919867875e-22
240.4,3.582424237768602e-22,1.8981736662540382e-22,1.4952946253033284e-22,2.2770126184451466e-22
240.6,3.4185330461536052e-22,1.836428247939374e-22,1.453314428603636e-22,2.2616013655284285e-22
240.8,3.2772847165380484e-22,1.7836458742187737e-22,1.4413200866894382e-22,2.2346316729241714e-22
241.0,3.130106113541686e-22,1.7179168805289695e-22,1.419330459846742e-22,2.2230732332366325e-22
241.2,2.9926315942593696e-22,1.6621468252770146e-22,1.391343662046947e-22,2.199956353861555e-22
241.4,2.8821128630716246e-22,1.6213151776818334e-22,1.3833474341041486e-22,2.165281034798938e-22
