X MnCl+;Y MnCl+;X MnCl2;Y MnCl2;X MnCl3-;Y MnCl3-;X MnClH2O;Y MnClH2O;X MnCl2aq;Y MnCl2aq;X MnH2O;Y MnH2O
150;0;180;0;170;0;150;0;160;0;120;0
150,5;0;180,28;0;170,2;0;150,22;0;160,18;0;120,16;0
151;0;180,56;0;170,4;0;150,44;0;160,36;0;120,32;0
151,5;0;180,84;0;170,6;0;150,66;0;160,54;0;120,48;0
152;0;181,12;0;170,8;0;150,88;0;160,72;0;120,64;0
152,5;0;181,4;0;171;0;151,1;0;160,9;0;120,8;0
153;0;181,68;0;171,2;0;151,32;0;161,08;0;120,96;0
153,5;0;181,96;0;171,4;0;151,54;0;161,26;0;121,12;0
154;0;182,24;0;171,6;0;151,76;0;161,44;0;121,28;0
154,5;0;182,52;0;171,8;0;151,98;0;161,62;0;121,44;0
155;0;182,8;0;172;0;152,2;0;161,8;0;121,6;0
155,5;0;183,08;0;172,2;0;152,42;0;161,98;0;121,76;0
156;0;183,36;0;172,4;0;152,64;0;162,16;0;121,92;0
156,5;0;183,64;0;172,6;0;152,86;0;162,34;0;122,08;0
157;0;183,92;0;172,8;0;153,08;0;162,52;0;122,24;0
157,5;0;184,2;0;173;0;153,3;0;162,7;0;122,4;0
158;0;184,48;0;173,2;0;153,52;0;162,88;0;122,56;0
158,5;0;184,76;0;173,4;0;153,74;0;163,06;0;122,72;0
159;0;185,04;0;173,6;0;153,96;0;163,24;0;122,88;0
159,5;0;185,32;0;173,8;0;154,18;0;163,42;0;123,04;0
160;0;185,6;0;174;0;154,4;0;163,6;0;123,2;0
160,5;0;185,88;0;174,2;0;154,62;0;163,78;0;123,36;0
161;0;186,16;0;174,4;0;154,84;0;163,96;0;123,52;0
161,5;0;186,44;0;174,6;0;155,06;0;164,14;0;123,68;0
162;0;186,72;0;174,8;0;155,28;0;164,32;0;123,84;0
162,5;0;187;0;175;0;155,5;0;164,5;0;124;0
163;0;187,28;0;175,2;0;155,72;0;164,68;0;124,16;0
163,5;0;187,56;0;175,4;0;155,94;0;164,86;0;124,32;0
164;0;187,84;0;175,6;0;156,16;0;165,04;0;124,48;0
164,5;0;188,12;0;175,8;0;156,38;0;165,22;0;124,64;0
165;0;188,4;0;176;0;156,6;0;165,4;0;124,8;0
165,5;0;188,68;0;176,2;0;156,82;0;165,58;0;124,96;0
166;0;188,96;0;176,4;0;157,04;0;165,76;0;125,12;0
166,5;0;189,24;0;176,6;0;157,26;0;165,94;0;125,28;0
167;0;189,52;0;176,8;0;157,48;0;166,12;0;125,44;0
167,5;0;189,8;0;177;0;157,7;0;166,3;0;125,6;0
168;0;190,08;1,00E-10;177,2;0;157,92;0;166,48;1,00E-10;125,76;0
168,5;0;190,36;1,00E-10;177,4;0;158,14;0;166,66;1,00E-10;125,92;0
169;0;190,64;3,00E-10;177,6;0;158,36;0;166,84;2,00E-10;126,08;0
169,5;0;190,92;8,00E-10;177,8;0;158,58;0;167,02;5,00E-10;126,24;0
170;0;191,2;1,80E-09;178;1,00E-10;158,8;0;167,2;0,000000001;126,4;0
170,5;0;191,48;3,90E-09;178,2;1,00E-10;159,02;0;167,38;0,000000002;126,56;0
171;0;191,76;8,60E-09;178,4;3,00E-10;159,24;0;167,56;0,000000004;126,72;0
171,5;0;192,04;1,85E-08;178,6;5,00E-10;159,46;0;167,74;7,80E-09;126,88;0
172;0;192,32;3,94E-08;178,8;1,10E-09;159,68;0;167,92;1,52E-08;127,04;0
172,5;0;192,6;8,26E-08;179;2,20E-09;159,9;1,00E-10;168,1;2,95E-08;127,2;0
173;0;192,88;1,71E-07;179,2;4,30E-09;160,12;2,00E-10;168,28;5,64E-08;127,36;0
173,5;0;193,16;3,48E-07;179,4;8,60E-09;160,34;6,00E-10;168,46;1,07E-07;127,52;0
174;0;193,44;7,00E-07;179,6;1,69E-08;160,56;1,50E-09;168,64;2,01E-07;127,68;0
174,5;0;193,72;1,39E-06;179,8;3,29E-08;160,78;3,50E-09;168,82;3,73E-07;127,84;0
175;0;194;2,71E-06;180;6,35E-08;161;8,40E-09;169;6,86E-07;128;0
175,5;0;194,28;5,24E-06;180,2;1,21E-07;161,22;1,97E-08;169,18;1,25E-06;128,16;0
176;0;194,56;9,96E-06;180,4;2,29E-07;161,44;4,54E-08;169,36;2,26E-06;128,32;0
176,5;0;194,84;1,87E-05;180,6;4,30E-07;161,66;1,03E-07;169,54;4,05E-06;128,48;0
177;0;195,12;0,000034644;180,8;7,98E-07;161,88;2,29E-07;169,72;7,17E-06;128,64;0
177,5;0;195,4;6,33E-05;181;1,47E-06;162,1;5,03E-07;169,9;1,26E-05;128,8;0
178;0;195,68;0,00011424;181,2;2,67E-06;162,32;1,09E-06;170,08;2,19E-05;128,96;0
178,5;0;195,96;0,000203414;181,4;0,000004824;162,54;2,31E-06;170,26;0,000037813;129,12;0
179;0;196,24;0,00035753;181,6;8,63E-06;162,76;4,83E-06;170,44;6,46E-05;129,28;0
179,5;0;196,52;0,000620385;181,8;1,53E-05;162,98;9,93E-06;170,62;0,000109442;129,44;0
180;0;196,8;0,00106285;182;2,69E-05;163,2;2,01E-05;170,8;0,000183698;129,6;0
180,5;0;197,08;0,00179799;182,2;4,68E-05;163,42;0,000040134;170,98;0,000305606;129,76;0
181;0;197,36;0,00300367;182,4;8,07E-05;163,64;7,88E-05;171,16;0,000503945;129,92;0
181,5;0;197,64;0,004955756;182,6;0,000137948;163,86;0,0001525;171,34;0,000823746;130,08;0
182;0;197,92;0,008076135;182,8;0,000233814;164,08;0,000290568;171,52;0,001334808;130,24;0
182,5;2,00E-10;198,2;0,01300098;183;0,000392836;164,3;0,000545371;171,7;0,002144306;130,4;0
183;9,00E-10;198,48;0,020676162;183,2;0,00065428;164,52;0,001008453;171,88;0,003415252;130,56;0
183,5;4,30E-09;198,76;0,032488317;183,4;0,001080312;164,74;0,001837335;172,06;0,00539328;130,72;0
184;2,04E-08;199,04;0,050441702;183,6;0,001768447;164,96;0,003298672;172,24;0,00844507;130,88;0
184,5;9,09E-08;199,32;0,077392503;183,8;0,002870217;165,18;0,005836548;172,42;0,013112917;131,04;0
185;0,000000383;199,6;0,117353435;184;0,004618914;165,4;0,010178564;172,6;0,020191417;131,2;0
185,5;1,53E-06;199,88;0,175881927;184,2;0,007370385;165,62;0,017497535;172,78;0,030834092;131,36;0
186;5,81E-06;200,16;0,260564679;184,4;0,011662402;165,84;0,02965329;172,96;0,046700088;131,52;0
186,5;2,09E-05;200,44;0,381609242;184,6;0,018300198;166,06;0,049547248;173,14;0,070153853;131,68;0
187;0,000071726;200,72;0,55254925;184,8;0,0284784;166,28;0,08163214;173,32;0,104534018;131,84;0
187,5;0,000233757;201;0,791063442;185;0,043953096;166,5;0,132629957;173,5;0,154511517;132;0
188;0,000725259;201,28;1,119899293;185,2;0,067282066;166,72;0,212522139;173,68;0,226561338;132,16;0
188,5;0,002143768;201,56;1,567879817;185,4;0,102156703;166,94;0,335885865;173,86;0,329577033;132,32;1,00E-10
189;0,006041319;201,84;2,170956973;185,6;0,153855752;167,16;0,523656929;174,04;0,4756621;132,48;3,00E-10
189,5;0,01624284;202,12;2,973257431;185,8;0,229858939;167,38;0,80540051;174,22;0,681137384;132,64;8,00E-10
190;0,041693762;202,4;4,0280474;186;0,340667884;167,6;1,222162861;174,4;0,967808292;132,8;2,30E-09
190,5;0,102248524;202,68;5,398523868;186,2;0,500892269;167,82;1,829955776;174,58;1,364539501;132,96;6,20E-09
191;0,239724961;202,96;7,158322118;186,4;0,730671016;168,04;2,70388815;174,76;1,909187278;133,12;1,63E-08
191,5;0,537685857;203,24;9,391615872;186,6;1,057510754;168,26;3,94290188;174,94;2,650939923;133,28;4,23E-08
192;1,154483211;203,52;12,19267967;186,8;1,518636659;168,48;5,674991164;175,12;3,653114221;133,44;1,08E-07
192,5;2,374490631;203,8;15,66478559;187;2,163962982;168,7;8,062685716;175,3;4,996449401;133,6;0,000000268
193;4,681155316;204,08;19,91832092;187,2;3,05980109;168,92;11,3084634;175,48;6,782928846;133,76;6,55E-07
193,5;8,851301447;204,36;25,06804134;187,4;4,293430285;169,14;15,65963421;175,66;9,140142893;133,92;1,57E-06
194;16,06202616;204,64;31,22941719;187,6;5,978659182;169,36;21,41211771;175,84;12,22618264;134,08;3,69E-06
194,5;27,98956993;204,92;38,51408764;187,8;8,262500985;169,58;28,91243604;176,02;16,23502409;134,24;8,53E-06
195;46,86562668;205,2;47,02450783;188;11,33307235;169,8;38,55718441;176,2;21,40232425;134,4;1,93E-05
195,5;75,44503042;205,48;56,84795349;188,2;15,42880004;170,02;50,78924007;176,38;28,01150549;134,56;4,30E-05
196;116,8360079;205,76;68,05013227;188,4;20,84898021;170,24;66,09004972;176,56;36,39995346;134,72;9,38E-05
196,5;174,156914;206,04;80,6687335;188,6;27,96567899;170,46;84,96750638;176,74;46,96509732;134,88;0,00020106
197;250,0155568;206,32;94,70732298;188,8;37,23688951;170,68;107,9391975;176,92;60,17008246;135,04;0,000423113
197,5;345,8568277;206,6;110,1300483;189;49,22076738;170,9;135,511169;177,1;76,54868722;135,2;0,000874392
198;461,2812455;206,88;126,8576574;189,2;64,59065498;171,12;168,1527844;177,28;96,70908129;135,36;0,001774714
198,5;593,4839048;207,16;144,7653414;189,4;84,15047654;171,34;206,2687349;177,46;121,3359784;135,52;0,003538146
199;736,9803392;207,44;163,6828933;189,6;108,849943;171,56;250,1697171;177,64;151,1907044;135,68;0,00692948
199,5;883,7579938;207,72;183,3976183;189,8;139,7988553;171,78;300,0436975;177,82;187,1086911;135,84;0,013333839
200;1023,916708;208;203,6603484;190;178,2796426;172;355,9299568;178;229,993918;136;0,025211057
200,5;1146,752632;208,28;224,194807;190,2;225,7571285;172,22;417,6982039;178,18;280,8098683;136,16;0,046844601
201;1242,125476;208,56;244,7104357;190,4;283,884396;172,44;485,0349317;178,36;340,5666408;136,32;0,08554835
201,5;1301,863252;208,84;264,9186624;190,6;354,5035302;172,66;557,4388303;178,54;410,3039727;136,48;0,15356702
202;1320,930183;209,12;284,5524414;190,8;439,6399751;172,88;634,2264947;178,72;491,0700754;136,64;0,270999675
202,5;1298,124306;209,4;303,3887647;191;541,4892561;173,1;714,5489008;178,9;583,8963717;136,8;0,470190662
203;1236,171998;209,68;321,2737164;191,2;662,3949086;173,32;797,4182413;179,08;689,7684342;136,96;0,802164106
203,5;1141,219041;209,96;338,149532;191,4;804,8166263;173,54;881,7438073;179,26;809,5936626;137,12;1,345815977
204;1021,844804;210,24;354,0830309;191,6;971,2879024;173,76;966,3747727;179,44;944,1664878;137,28;2,220701887
204,5;887,8142994;210,52;369,294704;191,8;1164,362791;173,98;1050,147083;179,62;1094,132139;137,44;3,604338158
205;748,8126594;210,8;384,1876651;192;1386,551858;174,2;1131,931264;179,8;1259,950246;137,6;5,754925533
205,5;613,3775078;211,08;399,3755903;192,2;1640,247904;174,42;1210,677889;179,98;1441,85975;137,76;9,040255214
206;488,1723285;211,36;415,7086843;192,4;1927,64263;174,64;1285,457717;180,16;1639,846757;137,92;13,97320536
206,5;377,6534119;211,64;434,2966047;192,6;2250,636024;174,86;1355,494086;180,34;1853,617053;138,08;21,25362422
207;284,0993468;211,92;456,5271538;192,8;2610,740856;175,08;1420,185977;180,52;2082,575021;138,24;31,8154794
207,5;207,9134671;212,2;484,0794089;193;3008,985291;175,3;1479,121146;180,7;2325,810621;138,4;46,87691848
208;148,0836036;212,48;518,9298224;193,2;3445,817097;175,52;1532,079682;180,88;2582,095915;138,56;67,98937045
208,5;102,6873992;212,76;563,3496949;193,4;3921,013393;175,74;1579,029301;181,06;2849,892368;138,72;97,08012378
209;69,35607545;213,04;619,8923405;193,6;4433,600095;175,96;1620,114296;181,24;3127,369773;138,88;136,4811272
209,5;45,64339344;213,32;691,3682446;193,8;4981,785329;176,18;1655,64048;181,42;3412,437203;139,04;188,9353342
210;29,2795133;213,6;780,8066074;194;5562,910949;176,4;1686,058443;181,6;3702,785891;139,2;257,5710792
210,5;18,3149762;213,88;891,4018887;194,2;6173,425951;176,62;1711,947136;181,78;3995,943372;139,36;345,8350821
211;11,17550488;214,16;1026,444366;194,4;6808,884995;176,84;1733,999151;181,96;4289,337626;139,52;457,3760724
211,5;6,65434987;214,44;1189,234288;194,6;7463,974482;177,06;1753,008233;182,14;4580,36943;139,68;595,8739288
212;3,867932729;214,72;1382,979967;194,8;8132,567625;177,28;1769,858653;182,32;4866,490578;139,84;764,8137393
212,5;2,195542607;215;1610,68109;195;8807,808866;177,5;1785,515235;182,5;5145,285192;140;967,2101332
213;1,217438884;215,28;1874,999583;195,2;9482,226709;177,72;1801,012128;182,68;5414,551015;140,16;1205,294195
213,5;0,659698205;215,56;2178,121524;195,4;10147,87283;177,94;1817,438131;182,86;5672,377372;140,32;1480,182546
214;0,349449661;215,84;2521,614744;195,6;10796,48402;178,16;1835,916362;183,04;5917,216407;140,48;1791,554836
214,5;0,181013672;216,12;2906,287824;195,8;11419,66241;178,38;1857,576528;183,22;6147,944353;140,64;2137,370847
215;0,091721202;216,4;3332,05709;196;12009,06843;178,6;1883,518888;183,4;6363,909822;140,8;2513,660707
215,5;0,04547805;216,68;3797,828807;196,2;12556,62014;178,82;1914,770136;183,58;6564,966562;140,96;2914,420381
216;0,02207231;216,96;4301,404021;196,4;13054,69216;179,04;1952,232713;183,76;6751,488706;141,12;3331,639334
216,5;0,010489282;217,24;4839,4133;196,6;13496,30715;179,26;1996,630439;183,94;6924,367203;141,28;3755,477939
217;0,004882384;217,52;5407,28793;196,8;13875,31298;179,48;2048,454519;184,12;7084,986948;141,44;4174,599558
217,5;0,002226592;217,8;5999,272966;197;14186,53908;179,7;2107,914871;184,3;7235,184919;141,6;4576,647388
218;0,000995186;218,08;6608,485877;197,2;14425,92644;179,92;2174,902147;184,48;7377,190498;141,76;4948,840794
218,5;0,000436067;218,36;7227,022504;197,4;14590,62639;180,14;2248,965748;184,66;7513,549953;141,92;5278,651846
219;0,000187378;218,64;7846,109706;197,6;14679,06499;180,36;2329,312388;184,84;7647,037762;142,08;5554,511947
219,5;7,90E-05;218,92;8456,301584;197,8;14690,97075;180,58;2414,828558;185,02;7780,558124;142,24;5766,49243
220;3,27E-05;219,2;9047,713699;198;14627,36531;180,8;2504,128467;185,2;7917,040415;142,4;5906,902723
220,5;1,33E-05;219,48;9610,287365;198,2;14490,5178;181,02;2595,626953;185,38;8059,332674;142,56;5970,755505
221;5,36E-06;219,76;10134,07413;198,4;14283,86537;181,24;2687,634652;185,56;8210,097307;142,72;5956,059579
221,5;2,27E-06;220,04;10609,52904;198,6;14011,90327;181,46;2778,470457;185,74;8371,713086;142,88;5863,916797
222;1,32E-06;220,32;11027,80048;198,8;13680,04922;181,68;2866,584416;185,92;8546,187273;143,04;5698,417388
222,5;1,65E-06;220,6;11381,00388;199;13294,48744;181,9;2950,682701;186,1;8735,081216;143,2;5466,346408
223;3,48E-06;220,88;11662,4676;199,2;12861,99834;182,12;3029,845441;186,28;8939,452181;143,36;5176,730572
223,5;8,23E-06;221,16;11866,93981;199,4;12389,78011;182,34;3103,62806;186,46;9159,813451;143,52;4840,267687
224;1,94E-05;221,44;11990,74757;199,6;11885,26845;182,56;3172,137386;186,64;9396,113913;143,68;4468,688949
224,5;4,49E-05;221,72;12031,90136;199,8;11355,96033;182,78;3236,075194;186,82;9647,737518;143,84;4074,106989
225;0,000101343;222;11990,14091;200;10809,24721;183;3296,743811;187;9913,522147;144;3668,399779
225,5;0,000223217;222,28;11866,92136;200,2;10252,26239;183,22;3356,010978;187,18;10191,79661;144,16;3262,673183
226;0,000479976;222,56;11665,34122;200,4;9691,746268;183,44;3416,233948;187,36;10480,43384;144,32;2866,834279
226,5;0,001007848;222,84;11390,01682;200,6;9133,932456;183,66;3480,145711;187,54;10776,91759;144,48;2489,295087
227;0,002067189;223,12;11046,90988;200,8;8584,456531;183,88;3550,708981;187,72;11078,41975;144,64;2136,813524
227,5;0,00414285;223,4;10643,11693;201;8048,288333;184,1;3630,946013;187,9;11381,8848;144,8;1814,466722
228;0,008114755;223,68;10186,6309;201,2;7529,687753;184,32;3723,754137;188,08;11684,11799;144,96;1525,742198
228,5;0,015539268;223,96;9686,085499;201,4;7032,183128;184,54;3831,718135;188,26;11981,87378;145,12;1272,725466
229;0,029099454;224,24;9150,493612;201,6;6558,570637;184,76;3956,930989;188,44;12271,94131;145,28;1056,358712
229,5;0,05330364;224,52;8588,990275;201,8;6110,932534;184,98;4100,834209;188,62;12551,22392;145,44;876,7438494
230;0,095535279;224,8;8010,589828;202;5690,67163;185,2;4264,087877;188,8;12816,81035;145,6;733,464311
230,5;0,16757962;225,08;7423,965594;202,2;5298,55918;185,42;4446,478791;188,98;13066,03552;145,76;625,9024814
231;0,287768536;225,36;6837,258635;202,4;4934,793194;185,64;4646,872854;189,16;13296,52965;145,92;553,5332715
231,5;0,483885738;225,64;6257,920317;202,6;4599,064234;185,86;4863,215262;189,34;13506,25491;146,08;516,1781749
232;0,796949944;225,92;5692,591465;202,8;4290,625849;186,08;5092,579214;189,52;13693,52939;146,24;514,207885
232,5;1,285931599;226,2;5147,018992;203;4008,367066;186,3;5331,261133;189,7;13857,03885;146,4;548,6848294
233;2,033348427;226,48;4626,009177;203,2;3750,884585;186,52;5574,917746;189,88;13995,83699;146,56;621,4397215
233,5;3,15151951;226,76;4133,415251;203,4;3516,552724;186,74;5818,738129;190,06;14109,33561;146,72;735,0785001
234;4,789037766;227,04;3672,155733;203,6;3303,589456;186,96;6057,64198;190,24;14197,28608;146,88;892,9180159
234,5;7,136759701;227,32;3244,259072;203,8;3110,117289;187,18;6286,494135;190,42;14259,75396;147,04;1098,850788
235;10,43233733;227,6;2850,929577;204;2934,218067;187,4;6500,324627;190,6;14297,08843;147,2;1357,141345
235,5;14,96207444;227,88;2492,629378;204,2;2773,981093;187,62;6694,54352;190,78;14309,88851;147,36;1672,159265
236;21,05873582;228,16;2169,17116;204,4;2627,544287;187,84;6865,140201;190,96;14298,9675;147,52;2048,057193
236,5;29,09393745;228,44;1879,816737;204,6;2493,128314;188,06;7008,857839;191,14;14265,31739;147,68;2488,405664
237;39,46395854;228,72;1623,376976;204,8;2369,06386;188,28;7123,335088;191,32;14210,07423;147,84;2995,800486
237,5;52,56828183;229;1398,309187;205;2253,812372;188,5;7207,208903;191,5;14134,48567;148;3571,462269
238;68,78089503;229,28;1202,808827;205,2;2145,980726;188,72;7260,174247;191,68;14039,88123;148,16;4214,851061
238,5;88,41533256;229,56;1034,893083;205,4;2044,330355;188,94;7282,998592;191,86;13927,64574;148,32;4923,321527
239;111,6855119;229,84;892,4746338;205,6;1947,781456;189,16;7277,491157;192,04;13799,1961;148,48;5691,845137
239,5;138,6654836;230,12;773,4245985;205,8;1855,412898;189,38;7246,428811;192,22;13655,96136;148,64;6512,82508
240;169,2520956;230,4;675,6242886;206;1766,458471;189,6;7193,44242;192,4;13499,36579;148,8;7376,026803
240,5;203,1350908;230,68;597,0059326;206,2;1680,300113;189,82;7122,868939;192,58;13330,81452;148,96;8268,642073
241;239,7791613;230,96;535,582971;206,4;1596,458724;190,04;7039,575904;192,76;13151,68148;149,12;9175,49746
241,5;278,4218743;231,24;489,4708653;206,6;1514,583138;190,26;6948,76591;192,94;12963,29892;149,28;10079,40947
242;318,0901562;231,52;456,8995946;206,8;1434,43779;190,48;6855,769324;193,12;12766,94829;149,44;10961,67873
242,5;357,6362714;231,8;436,2191654;207;1355,88958;190,7;6765,833788;193,3;12563,85185;149,6;11802,70563
243;395,7921362;232,08;425,8995132;207,2;1278,894379;190,92;6683,91902;193,48;12355,16491;149,76;12582,69995
243,5;431,2386458;232,36;424,5261684;207,4;1203,483565;191,14;6614,505086;193,66;12141,96833;149,92;13282,449
244;462,6847532;232,64;430,7929848;207,6;1129,750962;191,36;6561,421647;193,84;11925,2614;150,08;13884,10253
244,5;488,9496109;232,92;443,4931162;207,8;1057,840463;191,58;6527,704792;194,02;11705,95483;150,24;14371,92946
245;509,0403978;233,2;461,5092757;208;987,9346109;191,8;6515,486873;194,2;11484,86439;150,4;14733,00142
245,5;522,218625;233,48;483,8041421;208,2;920,2443189;192,02;6525,923468;194,38;11262,70506;150,56;14957,76162
246;528,0487432;233,76;509,4115992;208,4;854,9999115;192,24;6559,160033;194,56;11040,08622;150,72;15040,44396
246,5;526,4246352;234,04;537,4293064;208,6;792,443577;192,46;6614,339267;194,74;10817,5081;150,88;14979,31674
247;517,5718357;234,32;567,0129273;208,8;732,8233029;192,68;6689,648552;194,92;10595,35991;151,04;14776,73667
247,5;502,0257796;234,6;597,3721742;209;676,3883112;192,9;6782,405206;195,1;10373,91985;151,2;14439,0113
248;480,5887258;234,88;627,7686821;209,2;623,3859695;193,12;6889,175779;195,28;10153,35738;151,36;13976,08025
248,5;454,2699418;235,16;657,5155957;209,4;574,0601133;193,34;7005,924221;195,46;9933,737824;151,52;13401,03731
249;424,2150684;235,44;685,978653;209,6;528,6506791;193,56;7128,18256;195,64;9715,029549;151,68;12729,52498
249,5;391,6311817;235,72;712,5784666;209,8;487,394514;193,78;7251,236828;195,82;9497,113602;151,84;11979,03973
250;357,7139331;236;736,7936546;210;450,5271963;194;7370,320355;196;9279,795753;152;11168,19043
250,5;323,5823666;236,28;758,1644374;210,2;418,2856791;194,22;7480,806269;196,18;9062,820722;152,16;10315,95275
251;290,2257378;236,56;776,2963186;210,4;390,9115474;194,44;7578,391141;196,36;8845,888288;152,32;9440,960093
251,5;258,4651021;236,84;790,8634751;210,6;368,6546612;194,66;7659,262173;196,54;8628,670864;152,48;8560,865937
252;228,9308094;237,12;801,6115227;210,8;351,7769509;194,88;7720,241103;196,72;8410,832088;152,64;7691,805826
252,5;202,0555243;237,4;808,3593657;211;340,5561222;195,1;7758,899131;196,9;8192,045895;152,8;6847,977976
253;178,0811327;237,68;810,9999036;211,2;335,2890295;195,32;7773,638533;197,08;7972,015528;152,96;6041,352699
253,5;157,0769918;237,96;809,4994342;211,4;336,2944833;195,54;7763,738169;197,26;7750,491918;153,12;5281,511711
254;138,9664594;238,24;803,8956648;211,6;343,9152648;195,76;7729,361807;197,44;7527,290904;153,28;4575,61046
254,5;123,5584935;238,52;794,2943141;211,8;358,5191422;195,98;7671,529838;197,62;7302,30877;153,44;3928,449957
255;110,5812853;238,8;780,8643592;212;380,4987;196,2;7592,05666;197,8;7075,535645;153,6;3342,639802
255,5;99,7153085;239,08;763,8320403;212,2;410,2698236;196,42;7493,45746;197,98;6847,066389;153,76;2818,83118
256;90,62374461;239,36;743,4737926;212,4;448,2687123;196,64;7378,829465;198,16;6617,108647;153,92;2355,997504
256,5;82,9789;239,64;720,1083162;212,6;494,9473309;196,86;7251,713722;198,34;6385,987862;154,08;1951,74105
257;76,48388759;239,92;694,0880237;212,8;550,7672521;197,08;7115,944154;198,52;6154,149125;154,24;1602,605847
257,5;70,88945065;240,2;665,7901266;213;616,1918869;197,3;6975,491001;198,7;5922,155827;154,4;1304,380096
258;66,00631398;240,48;635,6076229;213,2;691,6771509;197,52;6834,305714;198,88;5690,685181;154,56;1052,374927
258,5;61,71383359;240,76;603,9404437;213,4;777,6606607;197,74;6696,173993;199,06;5460,520762;154,72;841,6701102
259;57,96596636;241,04;571,1869994;213,6;874,5496141;197,96;6564,583016;199,24;5232,542283;154,88;667,3210302
259,5;54,79569397;241,32;537,7363374;213,8;982,7075509;198,18;6442,607892;199,42;5007,712894;155,04;524,5245754
260;52,31901343;241,6;503,9610934;214;1102,44025;198,4;6332,821256;199,6;4787,064354;155,2;408,7444147
260,5;50,7394613;241,88;470,2113756;214,2;1233,981057;198,62;6237,228593;199,78;4571,680444;155,36;315,7983289
261;50,35388159;242,16;436,8096841;214,4;1377,475995;198,84;6157,230536;199,96;4362,679028;155,52;241,9118114
261,5;51,55979678;242,44;404,0469219;214,6;1532,969015;199,06;6093,612004;200,14;4161,193193;155,68;183,7430851
262;54,86431684;242,72;372,1795161;214,8;1700,387812;199,28;6046,556793;200,32;3968,351874;155,84;138,3850698
262,5;60,894049;243;341,4276294;215;1879,530621;199,5;6015,685108;200,5;3785,260376;156;103,349782
263;70,4049812;243,28;311,9744067;215,2;2070,054417;199,72;6000,110599;200,68;3612,981202;156,16;76,54026164
263,5;84,2908429;243,56;283,9661753;215,4;2271,464944;199,94;5998,512756;200,86;3452,515528;156,32;56,2145165
264;103,5880405;243,84;257,5134948;215,6;2483,108989;200,16;6009,220116;201,04;3304,785676;156,48;40,94524082
264,5;129,4749695;244,12;232,6929343;215,8;2704,169253;200,38;6030,299556;201,22;3170,618871;156,64;29,57829795
265;163,2633682;244,4;209,549448;216;2933,662162;200,6;6059,647021;201,4;3050,732547;156,8;21,19220949
265,5;206,3794501;244,68;188,0992122;216,2;3170,438874;200,82;6095,075407;201,58;2945,721413;156,96;15,06021696
266;260,3328599;244,96;168,332793;216,4;3413,189697;201,04;6134,395795;201,76;2856,046448;157,12;10,61590135
266,5;326,6720768;245,24;150,2185141;216,6;3660,452009;201,26;6175,488959;201,94;2782,025974;157,28;7,42287235
267;406,9257244;245,52;133,7059092;216,8;3910,621743;201,48;6216,364835;202,12;2723,828893;157,44;5,148675022
267,5;502,5303221;245,8;118,7291529;217;4161,968351;201,7;6255,208503;202,3;2681,470147;157,6;3,542797345
268;614,7462604;246,08;105,2103793;217,2;4412,653102;201,92;6290,412071;202,48;2654,808438;157,76;2,418485659
268,5;744,5651233;246,36;93,06281445;217,4;4660,75046;202,14;6320,592669;202,66;2643,546188;157,92;1,637970916
269;892,6127947;246,64;82,19366506;217,6;4904,272196;202,36;6344,597467;202,84;2647,231713;158,08;1,100660682
269,5;1059,053945;246,92;72,50671916;217,8;5141,193811;202,58;6361,497257;203,02;2665,263555;158,24;0,733845248
270;1243,504356;247,2;63,90463366;218;5369,48277;202,8;6370,570563;203,2;2696,896866;158,4;0,485487984
270,5;1444,957997;247,48;56,29089428;218,2;5587,127974;203,02;6371,280576;203,38;2741,251761;158,56;0,318709251
271;1661,735684;247,76;49,57144692;218,4;5792,169884;203,24;6363,247348;203,56;2797,323483;158,72;0,207621474
271,5;1891,461501;248,04;43,65600927;218,6;5982,730622;203,46;6346,217643;203,74;2863,994254;158,88;0,134224109
272;2131,071924;248,32;38,45908017;218,8;6157,043439;203,68;6320,034741;203,92;2940,046621;159,04;0,086116958
272,5;2376,860797;248,6;33,90067017;219;6313,480873;203,9;6284,610184;204,1;3024,178123;159,2;0,054836025
273;2624,561101;248,88;29,90678163;219,2;6450,580993;204,12;6239,899126;204,28;3115,01708;159,36;0,034656252
273,5;2869,461954;249,16;26,40966938;219,4;6567,071167;204,34;6185,880522;204,46;3211,139276;159,52;0,021739761
274;3106,556756;249,44;23,3479142;219,6;6661,888811;204,56;6122,542946;204,64;3311,085312;159,68;0,013536446
274,5;3330,715953;249,72;20,66634167;219,8;6734,198709;204,78;6049,876389;204,82;3413,3784;159,84;0,008366628
275;3536,875887;250;18,31581758;220;6783,406541;205;5967,869948;205;3516,542332;160;0,005133472
275,5;3720,233698;250,28;16,25294963;220,2;6809,168366;205,22;5876,514954;205,18;3619,119397;160,16;0,003126843
276;3876,437491;250,56;14,43972231;220,4;6811,395911;205,44;5775,812771;205,36;3719,68797;160,32;0,001890836
276,5;4001,760983;250,84;12,84308947;220,6;6790,257624;205,66;5665,786252;205,54;3816,879539;160,48;0,001135204
277;4093,252674;251,12;11,4345456;220,8;6746,175545;205,88;5546,49368;205,72;3909,394916;160,64;0,000676683
277,5;4148,851127;251,4;10,18969423;221;6679,818166;206,1;5418,043966;205,9;3996,0194;160,8;0,000400503
278;4167,460124;251,68;9,087828537;221,2;6592,089527;206,32;5280,611863;206,08;4075,636673;160,96;0,000235372
278,5;4148,98002;251,96;8,111536685;221,4;6484,114891;206,54;5134,452025;206,26;4147,24121;161,12;0,000137358
279;4094,294449;252,24;7,246341753;221,6;6357,223411;206,76;4979,910913;206,44;4209,949048;161,28;7,96E-05
279,5;4005,214284;252,52;6,480384001;221,8;6212,928243;206,98;4817,435682;206,62;4263,006722;161,44;4,58E-05
280;3884,383309;252,8;5,804151304;222;6052,904635;207,2;4647,579449;206,8;4305,798264;161,6;2,62E-05
280,5;3735,152163;253,08;5,210262071;222,2;5878,966502;207,42;4471,002537;206,98;4337,850159;161,76;1,49E-05
281;3561,428671;253,36;4,693303772;222,4;5693,042039;207,64;4288,469547;207,16;4358,834181;161,92;8,38E-06
281,5;3367,513587;253,64;4,249729305;222,6;5497,1489;207,86;4100,842343;207,34;4368,568105;162,08;4,69E-06
282;3157,930985;253,92;3,877812858;222,8;5293,36945;208,08;3909,069218;207,52;4367,014265;162,24;2,61E-06
282,5;2937,262172;254,2;3,577666474;223;5083,826556;208,3;3714,170716;207,7;4354,276033;162,4;0,000001442
283;2709,990988;254,48;3,35131837;223,2;4870,660342;208,52;3517,222697;207,88;4330,59228;162,56;7,92E-07
283,5;2480,36705;254,76;3,202853941;223,4;4656,006263;208,74;3319,337355;208,06;4296,329924;162,72;4,32E-07
284;2252,291771;255,04;3,138620316;223,6;4441,974787;208,96;3121,64296;208,24;4251,974733;162,88;2,34E-07
284,5;2029,230235;255,32;3,16749533;223,8;4230,632921;209,18;2925,263076;208,42;4198,120534;163,04;1,26E-07
285;1814,150202;255,6;3,30122164;224;4023,987702;209,4;2731,296048;208,6;4135,457042;163,2;6,73E-08
285,5;1609,487888;255,88;3,554806464;224,2;3823,971755;209,62;2540,795444;208,78;4064,756529;163,36;3,57E-08
286;1417,138724;256,16;3,946987037;224,4;3632,4309;209,84;2354,752083;208,96;3986,859581;163,52;1,89E-08
286,5;1238,470241;256,44;4,500761221;224,6;3451,113763;210,06;2174,078188;209,14;3902,660193;163,68;9,90E-09
287;1074,353378;256,72;5,243981764;224,8;3281,663259;210,28;1999,594046;209,32;3813,090472;163,84;5,20E-09
287,5;925,2081542;257;6,210011517;225;3125,609793;210,5;1832,017483;209,5;3719,105218;164;2,70E-09
288;791,0594499;257,28;7,438435308;225,2;2984,365963;210,72;1671,956306;209,68;3621,666647;164,16;1,40E-09
288,5;671,598847;257,56;8,97582229;225,4;2859,222539;210,94;1519,903738;209,86;3521,729526;164,32;7,00E-10
289;566,2488044;257,84;10,8765303;225,6;2751,345471;211,16;1376,236799;210,04;3420,226958;164,48;4,00E-10
289,5;474,225989;258,12;13,20354117;225,8;2661,773668;211,38;1241,217434;210,22;3318,057064;164,64;2,00E-10
290;394,6011804;258,4;16,02931303;226;2591,417311;211,6;1114,996161;210,4;3216,070766;164,8;1,00E-10
290,5;326,353819;258,68;19,43663256;226,2;2541,056462;211,82;997,617912;210,58;3115,060854;164,96;0
291;268,4198987;258,96;23,51944666;226,4;2511,33978;212,04;889,0297157;210,76;3015,752517;165,12;0
291,5;219,7324877;259,24;28,38364995;226,6;2502,783174;212,26;789,0898339;210,94;2918,795439;165,28;0
292;179,2546621;259,52;34,14780075;226,8;2515,768265;212,48;697,577967;211,12;2824,757585;165,44;0
292,5;146,0050496;259,8;40,94373527;227;2550,540583;212,7;614,2061403;211,3;2734,120713;165,6;0
293;119,0764894;260,08;48,91704692;227,2;2607,207477;212,92;538,6299103;211,48;2647,277659;165,76;0
293,5;97,64852935;260,36;58,22739488;227,4;2685,735746;213,14;470,4595608;211,66;2564,531374;165,92;0
294;80,99460607;260,64;69,04860494;227,6;2785,94907;213,36;409,2709971;211,84;2486,095677;166,08;0
294,5;68,48480703;260,92;81,56852403;227,8;2907,525363;213,58;354,6160933;212,02;2412,097653;166,24;0
295;59,58509913;261,2;95,9885904;228;3049,994186;213,8;306,0322946;212,2;2342,581584;166,4;0
295,5;53,85385505;261,48;112,5230826;228,2;3212,734434;214,02;263,0513257;212,38;2277,514292;166,56;0
296;50,93641991;261,76;131,3980124;228,4;3394,972503;214,24;225,2069041;212,56;2216,791729;166,72;0
296,5;50,55835487;262,04;152,8496318;228,6;3595,781184;214,46;192,0413978;212,74;2160,246656;166,88;0
297;52,51788123;262,32;177,1225284;228,8;3814,07952;214,68;163,1114119;212,92;2107,657199;167,04;0
297,5;56,67793553;262,6;204,4672906;229;4048,633883;214,9;137,9923178;213,1;2058,756103;167,2;0
298;62,95814093;262,88;235,1377338;229,2;4298,060508;215,12;116,281769;213,28;2013,240462;167,36;0
298,5;71,32690525;263,16;269,3876865;229,4;4560,829686;215,34;97,60227124;213,46;1970,781717;167,52;0
299;81,79377554;263,44;307,4673478;229,6;4835,271811;215,56;81,60289096;213,64;1931,035728;167,68;0
299,5;94,40211239;263,72;349,6192385;229,8;5119,585423;215,78;67,96019477;213,82;1893,652693;167,84;0
300;109,2220955;264;396,0737836;230;5411,847352;216;56,37852328;214;1858,286749;168;0
300,5;126,3440343;264,28;447,0445731;230,2;5710,024997;216,22;46,58970108;214,18;1824,605065;168,16;0
301;145,871933;264,56;502,7233664;230,4;6011,990748;216,44;38,35228453;214,36;1792,29626;168,32;0
301,5;167,9172461;264,84;563,2749149;230,6;6315,538465;216,66;31,45044378;214,54;1761,078025;168,48;0
302;192,5927587;265,12;628,8316924;230,8;6618,401904;216,88;25,6925687;214,72;1730,703808;168,64;0
302,5;220,006534;265,4;699,4886323;231;6918,274889;217,1;20,90967972;214,9;1700,968483;168,8;0
303;250,2558845;265,68;775,2979827;231,2;7212,832989;217,32;16,95371511;215,08;1671,71291;168,96;0
303,5;283,421348;265,96;856,264394;231,4;7499,756417;217,54;13,69575644;215,26;1642,827357;169,12;0
304;319,5606764;266,24;942,3403634;231,6;7776,753799;217,76;11,02424349;215,44;1614,253746;169,28;0
304,5;358,7028784;266,52;1033,422159;231,8;8041,586444;217,98;8,843220903;215,62;1585,986713;169,44;0
305;400,842393;266,8;1129,346345;232;8292,092716;218,2;7,070649344;215,8;1558,073524;169,6;0
305,5;445,9335029;267,08;1229,887029;232,2;8526,212075;218,42;5,636805886;215,98;1530,612851;169,76;0
306;493,885133;267,36;1334,753942;232,4;8742,00838;218,64;4,482791089;216,16;1503,752502;169,92;0
306,5;544,5562072;267,64;1443,591438;232,6;8937,692007;218,86;3,559153805;216,34;1477,686139;170,08;0
307;597,7517557;267,92;1555,978521;232,8;9111,640394;219,08;2,824639465;216,52;1452,649104;170,24;0
307,5;653,2199845;268,2;1671,429937;233;9262,416612;219,3;2,245063184;216,7;1428,913427;170,4;0
308;710,6505128;268,48;1789,398393;233,2;9388,785632;219,52;1,792305511;216,88;1406,782135;170,56;0
308,5;769,6739812;268,76;1909,27792;233,4;9489,727965;219,74;1,443425985;217,06;1386,582968;170,72;0
309;829,8632048;269,04;2030,408379;233,6;9564,45044;219,96;1,179887655;217,24;1368,661629;170,88;0
309,5;890,7360109;269,32;2152,081066;233,8;9612,393907;220,18;0,986884359;217,42;1353,374687;171,04;0
310;951,75985;269,6;2273,545387;234;9633,237749;220,4;0,852761742;217,6;1341,082245;171,2;0
310,5;1012,358211;269,88;2394,016491;234,2;9626,901124;220,62;0,768522543;217,78;1332,140511;171,36;0
311;1071,918801;270,16;2512,683772;234,4;9593,540936;220,84;0,727406607;217,96;1326,894381;171,52;0
311,5;1129,803374;270,44;2628,720113;234,6;9533,546605;221,06;0,724536283;218,14;1325,670153;171,68;0
312;1185,359025;270,72;2741,291701;234,8;9447,531754;221,28;0,756618201;218,32;1328,768481;171,84;0
312,5;1237,930691;271;2849,568272;235;9336,323;221,5;0,821692961;218,5;1336,457682;172;0
313;1286,874528;271,28;2952,733578;235,2;9200,94609;221,72;0,918924867;218,68;1348,967476;172,16;0
313,5;1331,571795;271,56;3049,995911;235,4;9042,609668;221,94;1,048424479;218,86;1366,483281;172,32;0
314;1371,442826;271,84;3140,598469;235,6;8862,686985;222,16;1,211097482;219,04;1389,141116;172,48;0
314,5;1405,960648;272,12;3223,829384;235,8;8662,695927;222,38;1,408514023;219,22;1417,023204;172,64;0
315;1434,663817;272,4;3299,031211;236;8444,277713;222,6;1,642793419;219,4;1450,154338;172,8;0
315,5;1457,168026;272,68;3365,609704;236,2;8209,17468;222,82;1,916499773;219,58;1488,499056;172,96;0
316;1473,176129;272,96;3423,041717;236,4;7959,207516;223,04;2,232544758;219,76;1531,959691;173,12;0
316,5;1482,486221;273,24;3470,882074;236,6;7696,252354;223,26;2,594094434;219,94;1580,375297;173,28;0
317;1484,997519;273,52;3508,769283;236,8;7422,218093;223,48;3,004477638;220,12;1633,521511;173,44;0
317,5;1480,713869;273,8;3536,430005;237;7139,024291;223,7;3,467094085;220,3;1691,111328;173,6;0
318;1469,744759;274,08;3553,682183;237,2;6848,579965;223,92;3,985320915;220,48;1752,796805;173,76;0
318,5;1452,303853;274,36;3560,436808;237,4;6552,763586;224,14;4,562417002;220,66;1818,171676;173,92;0
319;1428,705117;274,64;3556,69828;237,6;6253,404531;224,36;5,201424879;220,84;1886,774844;174,08;0
319,5;1399,356694;274,92;3542,563404;237,8;5952,266188;224,58;5,905070667;221,02;1958,094712;174,24;0
320;1364,752774;275,2;3518,219036;238;5651,03091;224,8;6,675662863;221,2;2031,574299;174,4;0
320,5;1325,463752;275,48;3483,93846;238,2;5351,286919;225,02;7,514991283;221,38;2106,617072;174,56;0
321;1282,125008;275,76;3440,076584;238,4;5054,517263;225,24;8,424227847;221,56;2182,593422;174,72;0
321,5;1235,424678;276,04;3387,064072;238,6;4762,090853;225,46;9,403831195;221,74;2258,847674;174,88;0
322;1186,090799;276,32;3325,40053;238,8;4475,255584;225,68;10,4534574;221,92;2334,705565;175,04;0
322,5;1134,878194;276,6;3255,646903;239;4195,133508;225,9;11,57187919;222,1;2409,482041;175,2;0
323;1082,555454;276,88;3178,417247;239,2;3922,717967;226,12;12,75691617;222,28;2482,489299;175,36;0
323,5;1029,892328;277,16;3094,370013;239,4;3658,872612;226,34;14,00537853;222,46;2553,044913;175,52;0
324;977,6478113;277,44;3004,199038;239,6;3404,332148;226,56;15,31302662;222,64;2620,479957;175,68;0
324,5;926,5591437;277,72;2908,624388;239,8;3159,704685;226,78;16,67454859;222,82;2684,146978;175,84;0
325;877,3318956;278;2808,38323;240;2925,475508;227;18,0835578;223;2743,427697;176;0
325,5;830,6312633;278,28;2704,220862;240,2;2702,012101;227,22;19,53261173;223,18;2797,740334;176,16;0
326;787,0746333;278,56;2596,88207;240,4;2489,570236;227,44;21,01325311;223,36;2846,546433;176,32;0
326,5;747,2254378;278,84;2487,102921;240,6;2288,300947;227,66;22,51607391;223,54;2889,357075;176,48;0
327;711,5882756;279,12;2375,603103;240,8;2098,258193;227,88;24,03080195;223,72;2925,738411;176,64;0
327,5;680,6052437;279,4;2263,078923;241;1919,407049;228,1;25,54640948;223,9;2955,316398;176,8;0
328;654,653397;279,68;2150,197019;241,2;1751,632229;228,32;27,05124223;224,08;2977,780705;176,96;0
328,5;634,0432415;279,96;2037,588863;241,4;1594,746805;228,54;28,53316704;224,26;2992,887707;177,12;0
329;619,018153;280,24;1925,846079;241,6;1448,500959;228,76;29,97973541;224,44;3000,462554;177,28;0
329,5;609,7546201;280,52;1815,516604;241,8;1312,590634;228,98;31,3783599;224,62;3000,400279;177,44;0
330;606,3632092;280,8;1707,101698;242;1186,665979;229,2;32,71649986;224,8;2992,665953;177,6;0
330,5;608,8901651;281,08;1601,053785;242,2;1070,339472;229,42;33,98185247;224,98;2977,293899;177,76;0
331;617,3195699;281,36;1497,775099;242,4;963,1936454;229,64;35,16254498;225,16;2954,385991;177,92;0
331,5;631,5759999;281,64;1397,6171;242,6;864,7883373;229,86;36,24732395;225,34;2924,109093;178,08;0
332;651,5276316;281,92;1300,880605;242,8;774,6674239;230,08;37,22573696;225,52;2886,691699;178,24;0
332,5;676,9897623;282,2;1207,816568;243;692,3649874;230,3;38,08830287;225,7;2842,419836;178,4;0
333;707,7287172;282,48;1118,627455;243,2;617,410899;230,52;38,82666648;225,88;2791,63233;178,56;0
333,5;743,4661212;282,76;1033,469138;243,4;549,3358035;230,74;39,43373419;226,06;2734,715515;178,72;0
334;783,8835155;283,04;952,4532171;243,6;487,6755069;230,96;39,90378749;226,24;2672,097504;178,88;0
334,5;828,6272922;283,32;875,6497274;243,8;431,9747752;231,18;40,23257177;226,42;2604,2421;179,04;0
335;877,3139176;283,6;803,0901199;244;381,7905639;231,4;40,41735856;226,6;2531,642479;179,2;0
335,5;929,5354013;283,88;734,7704678;244,2;336,6947031;231,62;40,45697997;226,78;2454,81474;179,36;0
336;984,8649558;284,16;670,6548173;244,4;296,2760693;231,84;40,35183486;226,96;2374,291425;179,52;0
336,5;1042,862778;284,44;610,678619;244,6;260,14228;232,06;40,103867;227,14;2290,615117;179,68;0
337;1103,081872;284,72;554,7521806;244,8;227,9209497;232,28;39,71651596;227,32;2204,332209;179,84;0
337,5;1165,073814;285;502,7640858;245;199,260547;232,5;39,19464256;227,5;2115,986922;180;0
338;1228,394357;285,28;454,5845305;245,2;173,8308958;232,72;38,54443082;227,68;2026,115661;180,16;0
338,5;1292,608767;285,56;410,0685373;245,4;151,323362;232,94;37,77326919;227,86;1935,241774;180,32;0
339;1357,296761;285,84;369,0590109;245,6;131,4507655;233,16;36,88961419;228,04;1843,870767;180,48;0
339,5;1422,056963;286,12;331,3896083;245,8;113,947059;233,38;35,90283982;228,22;1752,486025;180,64;0
340;1486,510736;286,4;296,8874024;246;98,56680932;233,6;34,82307645;228,4;1661,545068;180,8;0
340,5;1550,305343;286,68;265,3753215;246,2;85,08451836;233,82;33,66104289;228,58;1571,476374;180,96;0
341;1613,116321;286,96;236,6743578;246,4;73,29381497;234,04;32,42787543;228,76;1482,676768;181,12;0
341,5;1674,649052;287,24;210,6055384;246,6;63,00654873;234,26;31,1349575;228,94;1395,509387;181,28;0
342;1734,639481;287,52;186,9916591;246,8;54,05181203;234,48;29,79375334;229,12;1310,30221;181,44;0
342,5;1792,853999;287,8;165,6587856;247;46,27491463;234,7;28,41564894;229,3;1227,347128;181,6;0
343;1849,088512;288,08;146,4375292;247,2;39,53633178;234,92;27,01180297;229,48;1146,899537;181,76;0
343,5;1903,166756;288,36;129,1641075;247,4;33,71064411;235,14;25,59301017;229,66;1069,178418;181,92;0
344;1954,937953;288,64;113,6812024;247,6;28,68548463;235,36;24,16957913;229,84;994,366856;182,08;0
344,5;2004,273901;288,92;99,83862958;247,8;24,36050594;235,58;22,75122606;230,02;922,6129696;182,24;0
345;2051,065643;289,2;87,49383587;248;20,646378;235,8;21,34698538;230,2;854,031194;182,4;0
345,5;2095,219851;289,48;76,51223954;248,2;17,46382485;236,02;19,96513789;230,38;788,7038707;182,56;0
346;2136,655075;289,76;66,76743093;248,4;14,74270667;236,24;18,61315657;230,56;726,6830961;182,72;0
346,5;2175,298022;290,04;58,14124975;248,6;12,42115175;236,46;17,29766962;230,74;667,9927778;182,88;0
347;2211,080016;290,32;50,52375515;248,8;10,44474147;236,68;16,02444024;230,92;612,6308509;183,04;0
347,5;2243,933771;290,6;43,81310446;249;8,765750047;236,9;14,79836202;231,1;560,5716059;183,2;0
348;2273,790626;290,88;37,91535524;249,2;7,342439683;237,12;13,6234688;231,28;511,7680864;183,36;0
348,5;2300,578337;291,16;32,74420476;249,4;6,138410714;237,34;12,50295734;231,46;466,1545134;183,52;0
349;2324,219513;291,44;28,22067952;249,6;5,12200576;237,56;11,43922148;231,64;423,6487001;183,68;0
349,5;2344,630762;291,72;24,27278682;249,8;4,265766087;237,78;10,43389576;231,82;384,1544234;183,84;0
350;2361,722562;292;20,83513857;250;3,545938001;238;9,487906919;232;347,5637226;184;0
350,5;2375,399879;292,28;17,84855704;250,2;2,942026729;238,22;8,601531488;232,18;313,7591005;184,16;0
351;2385,563479;292,56;15,25967045;250,4;2,436394972;238,44;7,774457696;232,36;282,6156067;184,32;0
351,5;2392,111894;292,84;13,02050563;250,6;2,01390318;238,66;7,005850154;232,54;254,0027852;184,48;0
352;2394,943958;293,12;11,0880836;250,8;1,661588511;238,88;6,294415753;232,72;227,7864757;184,64;0
352,5;2393,961803;293,4;9,424023181;251;1,36837944;239,1;5,638469426;232,9;203,8304583;184,8;0
353;2389,074215;293,68;7,994156484;251,2;1,124843008;239,32;5,035998583;233,08;181,9979379;184,96;0
353,5;2380,2002;293,96;6,768159632;251,4;0,922961798;239,54;4,484725162;233,26;162,1528645;185,12;0
354;2367,272642;294,24;5,719201036;251,6;0,755937837;239,76;3,982164455;233,44;144,1610927;185,28;0
354,5;2350,241907;294,52;4,82360899;251,8;0,618020774;239,98;3,525680008;233,62;127,8913819;185,44;0
355;2329,079259;294,8;4,060559749;252;0,504357822;240,2;3,11253409;233,8;113,2162431;185,6;0
355,5;2303,779972;295,08;3,411786712;252,2;0,410863151;240,42;2,73993337;233,98;100,0126407;185,76;0
356;2274,36602;295,36;2,861310925;252,4;0,334104553;240,64;2,405069593;234,16;88,16255675;185,92;0
356,5;2240,888255;295,64;2,395192747;252,6;0,271205425;240,86;2,105155177;234,34;77,55342737;186,08;0
357;2203,427991;295,92;2,001304224;252,8;0,219760237;241,08;1,837453778;234,52;68,07846312;186,24;0
357,5;2162,097945;296,2;1,669121497;253;0,177761861;241,3;1,599305959;234,7;59,63686273;186,4;0
358;2117,042504;296,48;1,389536373;253,2;0,143539274;241,52;1,388150185;234,88;52,13393234;186,56;0
358,5;2068,437298;296,76;1,15468607;253,4;0,115704302;241,74;1,20153943;235,06;45,48112084;186,72;0
359;2016,488101;297,04;0,957800039;253,6;0,093106241;241,96;1,03715374;235,24;39,59598259;186,88;0
359,5;1961,429085;297,32;0,793062732;253,8;0,074793264;242,18;0,892809117;235,42;34,40207765;187,04;0
360;1903,520481;297,6;0,655491136;254;0,059979724;242,4;0,766463104;235,6;29,82881988;187,2;0
360,5;1843,045708;297,88;0,540825909;254,2;0,048018499;242,62;0,656217493;235,78;25,811282;187,36;0
361;1780,30805;298,16;0,445434966;254,4;0,038377675;242,84;0,560318526;235,96;22,28996651;187,52;0
361,5;1715,626975;298,44;0,366228394;254,6;0,030620941;243,06;0,477154987;236,14;19,21055024;187,68;0
362;1649,33418;298,72;0,300583627;254,8;0,024391134;243,28;0,405254554;236,32;16,52360993;187,84;0
362,5;1581,769467;299;0,246279869;255;0,019396475;243,5;0,343278731;236,5;14,18433496;188;0
363;1513,276551;299,28;0,201440806;255,2;0,015399079;243,72;0,290016704;236,68;12,15223312;188,16;0
363,5;1444,198884;299,56;0,16448472;255,4;0,012205387;243,94;0,244378384;236,86;10,39083406;188,32;0
364;1374,875593;299,84;0,134081186;255,6;0,009658217;244,16;0,205386891;237,04;8,867394836;188,48;0
364,5;1305,637619;300,12;0,109113599;255,8;0,007630178;244,38;0,17217071;237,22;7,552610719;188,64;0
365;1236,80411;300,4;0,088646832;256;0,006018224;244,6;0,1439557;237,4;6,420334409;188,8;0
365,5;1168,679151;300,68;0,07189942;256,2;0,004739163;244,82;0,120057112;237,58;5,447305743;188,96;0
366;1101,548871;300,96;0,058219689;256,4;0,003725961;245,04;0,099871762;237,76;4,612893717;189,12;0
366,5;1035,678958;301,24;0,047065337;256,6;0,002924704;245,26;0,082870439;237,94;3,898852099;189,28;0
367;971,3126248;301,52;0,037986012;256,8;0,002292113;245,48;0,068590657;238,12;3,289089506;189,44;0
367,5;908,6690147;301,8;0,03060849;257;0,001793512;245,7;0,056629789;238,3;2,769454453;189,6;0
368;847,9420721;302,08;0,024624088;257,2;0,001401169;245,92;0,04663863;238,48;2,327535597;189,76;0
368,5;789,2998517;302,36;0,019778021;257,4;0,001092944;246,14;0,038315428;238,66;1,952477124;189,92;0
369;732,8842569;302,64;0,015860406;257,6;0,000851197;246,36;0,03140037;238,84;1,634809015;190,08;0
369,5;678,8111779;302,92;0,012698688;257,8;0,000661897;246,58;0,02567055;239,02;1,366291771;190,24;0
370;627,1709969;303,2;0,01015128;258;0,000513905;246,8;0,020935386;239,2;1,139775019;190,4;0
370,5;578,0294226;303,48;0,008102227;258,2;0,000398392;247,02;0,017032494;239,38;0,94906934;190,56;0
371;531,4286118;303,76;0,006456749;258,4;0,000308374;247,24;0,013823975;239,56;0,788830582;190,72;0
371,5;487,3885335;304,04;0,00513752;258,6;0,000238335;247,46;0,011193119;239,74;0,65445586;190,88;0
372;445,9085313;304,32;0,004081572;258,8;0,000183926;247,68;0,009041462;239,92;0,541990445;191,04;0
372,5;406,9690377;304,6;0,003237725;259;0,000141725;247,9;0,007286208;240,1;0,448044709;191,2;0
373;370,5333982;304,88;0,002564455;259,2;0,000109044;248,12;0,00585795;240,28;0,369720317;191,36;0
373,5;336,5497618;305,16;0,002028135;259,4;8,38E-05;248,34;0,00469869;240,46;0,304544871;191,52;0
374;304,9530008;305,44;0,001601584;259,6;0,000064267;248,56;0,003760112;240,64;0,250414242;191,68;0
374,5;275,6666241;305,72;0,001262866;259,8;4,92E-05;248,78;0,003002089;240,82;0,205541849;191,84;0
375;248,6046526;306;0,000994315;260;3,77E-05;249;0,002391391;241;0,168414201;192;0
375,5;223,6734301;306,28;0,000781724;260,2;2,88E-05;249,22;0,001900588;241,18;0,137752051;192,16;0
376;200,7733472;306,56;0,000613692;260,4;0,000021935;249,44;0,001507096;241,36;0,112476564;192,32;0
376,5;179,8004586;306,84;0,000481081;260,6;1,67E-05;249,66;0,001192383;241,54;0,091679931;192,48;0
377;160,6479809;307,12;0,000376583;260,8;1,27E-05;249,88;0,000941277;241,72;0,074599932;192,64;0
377,5;143,2076608;307,4;0,000294363;261;0,000009648;250,1;0,000741399;241,9;0,060597979;192,8;0
378;127,3710053;307,68;0,000229767;261,2;7,32E-06;250,32;0,000582673;242,08;0,049140211;192,96;0
378,5;113,0303735;307,96;0,000179093;261,4;5,54E-06;250,54;0,000456922;242,26;0,039781272;193,12;0
379;100,0799276;308,24;0,000139399;261,6;0,00000419;250,76;0,000357526;242,44;0,032150421;193,28;0
379,5;88,41644709;308,52;0,000108352;261,8;3,16E-06;250,98;0,000279144;242,62;0,025939678;193,44;0
380;77,94000983;308,8;8,41E-05;262;2,39E-06;251,2;0,000217476;242,8;0,02089373;193,6;0
380,5;68,5545476;309,08;6,52E-05;262,2;0,000001797;251,42;0,000169067;242,98;0,016801358;193,76;0
381;60,16828308;309,36;5,05E-05;262,4;1,35E-06;251,64;0,000131152;243,16;0,013488179;193,92;0
381,5;52,69405786;309,64;3,90E-05;262,6;0,000001015;251,86;0,000101524;243,34;0,010810512;194,08;0
382;46,04956101;309,92;3,01E-05;262,8;7,61E-07;252,08;7,84E-05;243,52;0,008650212;194,24;0
382,5;40,15746844;310,2;2,32E-05;263;5,70E-07;252,3;6,05E-05;243,7;0,006910321;194,4;0
383;34,94550313;310,48;1,79E-05;263,2;4,27E-07;252,52;4,65E-05;243,88;0,005511427;194,56;0
383,5;30,34642671;310,76;1,37E-05;263,4;3,19E-07;252,74;3,57E-05;244,06;0,004388619;194,72;0
384;26,29797206;311,04;1,06E-05;263,6;2,38E-07;252,96;0,000027345;244,24;0,003488936;194,88;0
384,5;22,74272647;311,32;8,09E-06;263,8;1,77E-07;253,18;2,09E-05;244,42;0,002769254;195,04;0
385;19,6279744;311,6;6,20E-06;264;1,32E-07;253,4;1,59E-05;244,6;0,002194526;195,2;0
385,5;16,90550786;311,88;4,74E-06;264,2;9,79E-08;253,62;1,21E-05;244,78;0,001736321;195,36;0
386;14,53141218;312,16;3,62E-06;264,4;7,27E-08;253,84;9,23E-06;244,96;0,001371622;195,52;0
386,5;12,46583385;312,44;2,76E-06;264,6;5,38E-08;254,06;7,00E-06;245,14;0,001081824;195,68;0
387;10,67273643;312,72;2,11E-06;264,8;3,99E-08;254,28;0,000005295;245,32;0,000851924;195,84;0
387,5;9,119649949;313;1,60E-06;265;2,95E-08;254,5;4,00E-06;245,5;0,000669838;196;0
388;7,777418204;313,28;1,22E-06;265,2;2,18E-08;254,72;3,01E-06;245,68;0,000525856;196,16;0
388,5;6,619947852;313,56;9,25E-07;265,4;0,000000016;254,94;2,27E-06;245,86;0,000412187;196,32;0
389;5,623962491;313,84;0,000000701;265,6;1,18E-08;255,16;1,70E-06;246,04;0,000322595;196,48;0
389,5;4,768764294;314,12;5,31E-07;265,8;8,70E-09;255,38;1,28E-06;246,22;0,000252092;196,64;0
390;4,036005224;314,4;4,02E-07;266;6,40E-09;255,6;9,55E-07;246,4;0,000196699;196,8;0
390,5;3,409469361;314,68;3,03E-07;266,2;4,70E-09;255,82;7,13E-07;246,58;0,000153246;196,96;0
391;2,87486744;314,96;2,29E-07;266,4;3,40E-09;256,04;5,31E-07;246,76;0,000119213;197,12;0
391,5;2,419644296;315,24;1,72E-07;266,6;2,50E-09;256,26;0,000000395;246,94;9,26E-05;197,28;0
392;2,03279961;315,52;1,30E-07;266,8;1,80E-09;256,48;2,93E-07;247,12;7,18E-05;197,44;0
392,5;1,704722056;315,8;9,76E-08;267;1,30E-09;256,7;2,17E-07;247,3;5,56E-05;197,6;0
393;1,427036718;316,08;7,33E-08;267,2;0,000000001;256,92;1,61E-07;247,48;4,30E-05;197,76;0
393,5;1,192465483;316,36;0,000000055;267,4;7,00E-10;257,14;1,19E-07;247,66;3,32E-05;197,92;0
394;0,994699936;316,64;4,12E-08;267,6;5,00E-10;257,36;8,74E-08;247,84;2,56E-05;198,08;0
394,5;0,828286202;316,92;3,08E-08;267,8;4,00E-10;257,58;6,43E-08;248,02;0,000019718;198,24;0
395;0,688521085;317,2;0,000000023;268;3,00E-10;257,8;4,72E-08;248,2;1,52E-05;198,4;0
395,5;0,571358793;317,48;1,72E-08;268,2;2,00E-10;258,02;3,46E-08;248,38;1,16E-05;198,56;0
396;0,473327536;317,76;1,28E-08;268,4;1,00E-10;258,24;2,53E-08;248,56;8,92E-06;198,72;0
396,5;0,391455225;318,04;9,60E-09;268,6;1,00E-10;258,46;1,85E-08;248,74;6,83E-06;198,88;0
397;0,323203555;318,32;7,10E-09;268,8;1,00E-10;258,68;1,35E-08;248,92;5,22E-06;199,04;0
397,5;0,266409725;318,6;5,30E-09;269;1,00E-10;258,9;9,80E-09;249,1;0,000003986;199,2;0
398;0,219235098;318,88;3,90E-09;269,2;0;259,12;7,10E-09;249,28;3,04E-06;199,36;0
398,5;0,180120136;319,16;2,90E-09;269,4;0;259,34;5,20E-09;249,46;2,31E-06;199,52;0
399;0,147744965;319,44;2,20E-09;269,6;0;259,56;3,70E-09;249,64;1,76E-06;199,68;0
399,5;0,120994987;319,72;1,60E-09;269,8;0;259,78;2,70E-09;249,82;1,33E-06;199,84;0
