X MnCl+;Y MnCl+;X MnCl2;Y MnCl2;X MnCl3-;Y MnCl3-;X MnClH2O;Y MnClH2O;X MnCl2aq;Y MnCl2aq;X MnH2O;Y MnH2O
140;0;160;0;160;0;;;150;0;120;0
140,24;0;160,14;0;160,16;0;;;150,2;0;120,2;0
140,48;0;160,28;0;160,32;0;;;150,4;0;120,4;0
140,72;0;160,42;0;160,48;0;;;150,6;0;120,6;0
140,96;0;160,56;0;160,64;0;;;150,8;0;120,8;0
141,2;0;160,7;0;160,8;0;;;151;0;121;0
141,44;0;160,84;0;160,96;0;;;151,2;0;121,2;0
141,68;0;160,98;0;161,12;0;;;151,4;0;121,4;0
141,92;0;161,12;0;161,28;0;;;151,6;0;121,6;0
142,16;0;161,26;0;161,44;0;;;151,8;0;121,8;0
142,4;0;161,4;0;161,6;0;;;152;0;122;0
142,64;0;161,54;0;161,76;0;;;152,2;0;122,2;0
142,88;0;161,68;0;161,92;0;;;152,4;0;122,4;0
143,12;0;161,82;0;162,08;0;;;152,6;0;122,6;0
143,36;0;161,96;0;162,24;0;;;152,8;0;122,8;0
143,6;0;162,1;0;162,4;0;;;153;0;123;0
143,84;0;162,24;0;162,56;0;;;153,2;0;123,2;0
144,08;0;162,38;0;162,72;0;;;153,4;0;123,4;0
144,32;0;162,52;0;162,88;0;;;153,6;0;123,6;0
144,56;0;162,66;0;163,04;0;;;153,8;0;123,8;0
144,8;0;162,8;0;163,2;0;;;154;0;124;0
145,04;0;162,94;0;163,36;0;;;154,2;0;124,2;0
145,28;0;163,08;0;163,52;0;;;154,4;0;124,4;0
145,52;0;163,22;0;163,68;0;;;154,6;0;124,6;0
145,76;0;163,36;0;163,84;0;;;154,8;0;124,8;0
146;0;163,5;0;164;0;;;155;0;125;0
146,24;0;163,64;0;164,16;0;;;155,2;0;125,2;0
146,48;0;163,78;0;164,32;0;;;155,4;0;125,4;0
146,72;0;163,92;0;164,48;0;;;155,6;0;125,6;0
146,96;0;164,06;0;164,64;0;;;155,8;0;125,8;0
147,2;0;164,2;0;164,8;0;;;156;0;126;0
147,44;0;164,34;0;164,96;0;;;156,2;0;126,2;0
147,68;0;164,48;0;165,12;0;;;156,4;0;126,4;0
147,92;0;164,62;0;165,28;0;;;156,6;0;126,6;0
148,16;0;164,76;0;165,44;0;;;156,8;0;126,8;0
148,4;0;164,9;0;165,6;0;;;157;0;127;0
148,64;0;165,04;0;165,76;0;;;157,2;0;127,2;0
148,88;0;165,18;0;165,92;1,00E-10;;;157,4;0;127,4;0
149,12;0;165,32;0;166,08;1,00E-10;;;157,6;0;127,6;0
149,36;0;165,46;0;166,24;3,00E-10;;;157,8;0;127,8;0
149,6;0;165,6;0;166,4;5,00E-10;;;158;0;128;0
149,84;0;165,74;0;166,56;9,00E-10;;;158,2;0;128,2;0
150,08;0;165,88;0;166,72;1,80E-09;;;158,4;0;128,4;0
150,32;0;166,02;0;166,88;3,20E-09;;;158,6;0;128,6;0
150,56;0;166,16;0;167,04;5,80E-09;;;158,8;0;128,8;0
150,8;0;166,3;0;167,2;1,06E-08;;;159;0;129;0
151,04;0;166,44;0;167,36;1,89E-08;;;159,2;0;129,2;0
151,28;0;166,58;0;167,52;3,36E-08;;;159,4;0;129,4;0
151,52;0;166,72;0;167,68;5,92E-08;;;159,6;1,00E-10;129,6;0
151,76;0;166,86;0;167,84;1,04E-07;;;159,8;2,00E-10;129,8;0
152;0;167;0;168;1,80E-07;;;160;4,00E-10;130;0
152,24;0;167,14;0;168,16;3,10E-07;;;160,2;8,00E-10;130,2;0
152,48;0;167,28;0;168,32;5,29E-07;;;160,4;1,90E-09;130,4;0
152,72;0;167,42;0;168,48;8,97E-07;;;160,6;4,30E-09;130,6;0
152,96;0;167,56;0;168,64;1,51E-06;;;160,8;9,70E-09;130,8;0
153,2;1,00E-10;167,7;0;168,8;2,52E-06;;;161;2,13E-08;131;0
153,44;3,00E-10;167,84;0;168,96;4,19E-06;;;161,2;4,62E-08;131,2;0
153,68;9,00E-10;167,98;0;169,12;6,89E-06;;;161,4;0,000000099;131,4;0
153,92;2,60E-09;168,12;0;169,28;1,13E-05;;;161,6;2,09E-07;131,6;0
154,16;7,40E-09;168,26;0;169,44;1,83E-05;;;161,8;4,36E-07;131,8;0
154,4;2,02E-08;168,4;0;169,6;2,95E-05;;;162;8,95E-07;132;0
154,64;5,38E-08;168,54;0;169,76;4,71E-05;;;162,2;0,000001815;132,2;0
154,88;1,40E-07;168,68;0;169,92;7,48E-05;;;162,4;3,63E-06;132,4;0
155,12;3,57E-07;168,82;0;170,08;0,000117984;;;162,6;7,17E-06;132,6;1,00E-10
155,36;8,85E-07;168,96;0;170,24;0,00018477;;;162,8;1,40E-05;132,8;5,00E-10
155,6;2,15E-06;169,1;0;170,4;0,000287364;;;163;2,69E-05;133;1,60E-09
155,84;5,08E-06;169,24;0;170,56;0,000443869;;;163,2;5,11E-05;133,2;5,30E-09
156,08;1,17E-05;169,38;1,00E-10;170,72;0,000680968;;;163,4;9,58E-05;133,4;1,64E-08
156,32;2,65E-05;169,52;2,00E-10;170,88;0,001037708;;;163,6;0,000177454;133,6;4,93E-08
156,56;5,86E-05;169,66;3,00E-10;171,04;0,00157083;;;163,8;0,000324624;133,8;1,44E-07
156,8;0,000126417;169,8;5,00E-10;171,2;0,002362204;;;164;0,000586593;134;4,09E-07
157,04;0,000266712;169,94;9,00E-10;171,36;0,003529142;;;164,2;0,001047147;134,2;1,13E-06
157,28;0,000550225;170,08;1,50E-09;171,52;0,005238593;;;164,4;0,001846906;134,4;3,02E-06
157,52;0,001110148;170,22;2,50E-09;171,68;0,007726533;;;164,6;0,003218851;134,6;7,85E-06
157,76;0,002191029;170,36;4,40E-09;171,84;0,011324273;;;164,8;0,005544039;134,8;1,98E-05
158;0,004230829;170,5;7,40E-09;172;0,016493905;;;165;0,009437806;135;0,000048753
158,24;0,007994567;170,64;1,25E-08;172,16;0,023875722;;;165,2;0,015881207;135,2;0,000116453
158,48;0,014785568;170,78;2,11E-08;172,32;0,034351225;;;165,4;0,026418666;135,4;0,000270541
158,72;0,026769205;170,92;3,53E-08;172,48;0,049126292;;;165,6;0,043450918;135,6;0,000611452
158,96;0,0474534;171,06;5,88E-08;172,64;0,069840207;;;165,8;0,070662994;135,8;0,001344817
159,2;0,082378322;171,2;9,73E-08;172,8;0,098707676;;;166;0,113640432;136;0,002879119
159,44;0,140071865;171,34;0,00000016;172,96;0,138702602;;;166,2;0,180743481;136,2;0,006001787
159,68;0,23332387;171,48;2,62E-07;173,12;0,193794366;;;166,4;0,284328798;136,4;0,012185967
159,92;0,380815793;171,62;4,26E-07;173,28;0,269249707;;;166,6;0,442430788;136,6;0,024106695
160,16;0,609108691;171,76;6,89E-07;173,44;0,372015964;;;166,8;0,681039455;136,8;0,046479495
160,4;0,954936685;171,9;1,11E-06;173,6;0,511204563;;;167;1,03713696;137;0,087375279
160,64;1,46767364;172,04;1,77E-06;173,76;0,698697172;;;167,2;1,562678554;137,2;0,160209566
160,88;2,211740037;172,18;2,82E-06;173,92;0,949900859;;;167,4;2,329721735;137,4;0,286645252
161,12;3,268603266;172,32;4,46E-06;174,08;1,284682987;;;167,6;3,436915633;137,6;0,500678344
161,36;4,737913316;172,46;7,02E-06;174,24;1,728521259;;;167,8;5,01755499;137,8;0,854187019
161,6;6,737229799;172,6;1,10E-05;174,4;2,313909328;;;168;7,249372722;138;1,424211748
161,84;9,399762962;172,74;1,71E-05;174,56;3,082063477;;;168,2;10,36618448;138,2;2,322202646
162,08;12,86959981;172,88;2,65E-05;174,72;4,084980935;;;168,4;14,67140053;138,4;3,705438859
162,32;17,29404025;173,02;4,07E-05;174,88;5,387905073;;;168,6;20,55327828;138,6;5,790829833
162,56;22,81293866;173,16;6,24E-05;175,04;7,07225673;;;168,8;28,50159864;138,8;8,8713995
162,8;29,54532648;173,3;9,50E-05;175,2;9,239093735;;;169;39,12521142;139;13,33598221
163,04;37,57404816;173,44;0,000144001;175,36;12,01316179;;;169,2;53,16961397;139,2;19,69305001
163,28;46,92962176;173,58;0,000217056;175,52;15,54759855;;;169,4;71,53341522;139,4;28,60011403
163,52;57,57495862;173,72;0,000325457;175,68;20,02934833;;;169,6;95,28221541;139,6;40,90067712
163,76;69,39285903;173,86;0,000485449;175,84;25,68533611;;;169,8;125,6581275;139,8;57,67102727
164;82,17826365;174;0,00072033;176;32,78943637;;;170;164,0829181;140;80,27891769
164,24;95,63702585;174,14;0,001063327;176,16;41,67025235;;;170,2;212,1525955;140,2;110,4550015
164,48;109,3924626;174,28;0,001561566;176,32;52,71969544;;;170,4;271,6212678;140,4;150,3754604
164,72;123,0001722;174,42;0,002281508;176,48;66,40232023;;;170,6;344,3722795;140,6;202,7504853
164,96;135,9706608;174,56;0,003316363;176,64;83,26532843;;;170,8;432,3750515;140,8;270,9083989
165,2;147,7983188;174,7;0,004796127;176,8;103,9491042;;;171;537,6267123;141;358,8600023
165,44;157,9943859;174,84;0,006901091;176,96;129,198084;;;171,2;662,0785384;141,2;471,3234131
165,68;166,1208814;174,98;0,009879921;177,12;159,8716968;;;171,4;807,5483777;141,4;613,687817
165,92;171,8221732;175,12;0,014073684;177,28;196,9550367;;;171,6;975,6215717;141,6;791,8967674
166,16;174,8509807;175,26;0,0199476;177,44;241,5688524;;;171,8;1167,544334;141,8;1012,239089
166,4;175,0861482;175,4;0,028132735;177,6;294,9783567;;;172;1384,114967;142;1281,048279
166,64;172,5404181;175,54;0,039480405;177,76;358,6002833;;;172,2;1625,579563;142,2;1604,328402
166,88;167,357552;175,68;0,055132717;177,92;434,0075443;;;172,4;1891,53983;142,4;1987,343221
167,12;159,7993307;175,82;0,076613474;178,08;522,930786;;;172,6;2180,881175;142,6;2434,22168
167,36;150,2240436;175,96;0,105944553;178,24;627,2560954;;;172,8;2491,729155;142,8;2947,642386
167,6;139,0589174;176,1;0,145793971;178,4;749,0180953;;;173;2821,441662;143;3528,658118
167,84;126,7694212;176,24;0,199663023;178,56;890,3876772;;;173,2;3166,642793;143,2;4176,705987
168,08;113,8285031;176,38;0,272121295;178,72;1053,65367;;;173,4;3523,302206;143,4;4889,81966
168,32;100,6885554;176,52;0,369099841;178,88;1241,197836;;;173,6;3886,861054;143,6;5665,020265
168,56;87,75837583;176,66;0,498254503;179,04;1455,462709;;;173,8;4252,402395;143,8;6498,818731
168,8;75,38666996;176,8;0,669413127;179,2;1698,912;;;174;4614,8606;144;7387,723272
169,04;63,85286939;176,94;0,895122315;179,36;1973,983476;;;174,2;4969,260914;144,2;8328,621386
169,28;53,3653169;177,08;1,191311219;179,52;2283,03455;;;174,4;5310,977306;144,4;9318,904378
169,52;44,06629385;177,22;1,578091813;179,68;2628,281073;;;174,6;5635,994348;144,6;10356,22922
169,76;36,04298191;177,36;2,080716766;179,84;3011,730199;;;174,8;5941,157307;144,8;11437,86727
170;29,34327761;177,5;2,730717593;180;3435,108528;;;175;6224,394191;145;12559,66552
170,24;23,99539022;177,64;3,567246917;180,16;3899,787091;;;175,2;6484,89416;145,2;13714,73233
170,48;20,03030032;177,78;4,6386493;180,32;4406,705094;;;175,4;6723,228612;145,4;14892,03929
170,72;17,50636902;177,92;6,004285067;180,48;4956,294634;;;175,6;6941,404252;145,6;16075,18803
170,96;16,5355898;178,06;7,73663062;180,64;5548,408851;;;175,8;7142,84134;145,8;17241,61072
171,2;17,31109634;178,2;9,923676729;180,8;6182,25619;;;176;7332,274873;146;18362,44594
171,44;20,13552185;178,34;12,67164296;180,96;6856,343504;;;176,2;7515,581322;146,2;19403,25875
171,68;25,44961267;178,48;16,10802164;181,12;7568,430738;;;176,4;7699,538356;146,4;20325,66119
171,92;33,86012097;178,62;20,3849581;181,28;8315,49982;;;176,6;7891,529397;146,6;21089,75538
172,16;46,16546042;178,76;25,6829658;181,44;9093,740103;;;176,8;8099,20852;146,8;21657,18685
172,4;63,37695605;178,9;32,2149642;181,6;9898,552379;;;177;8330,143861;147;21994,48427
172,64;86,7328411;179,04;40,23061497;181,76;10724,57297;;;177,2;8591,459138;147,2;22076,29396
172,88;117,7015594;179,18;50,0209176;181,92;11565,71884;;;177,4;8889,493079;147,4;21888,10648
173,12;157,9705513;179,32;61,92300859;182,08;12415,25401;;;177,6;9229,495374;147,6;21428,12254
173,36;209,416668;179,46;76,32509041;182,24;13265,87676;;;177,8;9615,375507;147,8;20708,00787
173,6;274,0547971;179,6;93,67139616;182,4;14109,82655;;;178;10049,51749;148;19752,42727
173,84;353,9622786;179,74;114,4670753;182,56;14939,00857;;;178,2;10532,66948;148,2;18597,40255
174,08;451,1782807;179,88;139,2828641;182,72;15745,13328;;;178,4;11063,91284;148,4;17287,68467
174,32;567,5794535;180,02;168,7593837;182,88;16519,86774;;;178,6;11640,71046;148,6;15873,44412
174,56;704,7357583;180,16;203,6108879;183,04;17254,99473;;;178,8;12259,02987;148,8;14406,65098
174,8;863,7531768;180,3;244,6282668;183,2;17942,57553;;;179;12913,53255;149;12937,52999
175,04;1045,112743;180,44;292,6810943;183,36;18575,11177;;;179,2;13597,81748;149,2;11511,43804
175,28;1248,517679;180,58;348,7185009;183,52;19145,7018;;;179,4;14304,70459;149,4;10166,4326
175,52;1472,761992;180,72;413,7686454;183,68;19648,18706;;;179,6;15026,54194;149,6;8931,694502
175,76;1715,634388;180,86;488,9365611;183,84;20077,28418;;;179,8;15755,51995;149,8;7826,854911
176;1973,87054;181;575,400163;184;20428,69898;;;180;16483,97624;150;6862,1706
176,24;2243,164478;181,14;674,4042171;184,16;20699,21913;;;180,2;17204,67558;150,2;6039,407471
176,48;2518,246242;181,28;787,2521019;184,32;20886,78296;;;180,4;17911,05161;150,4;5353,236951
176,72;2793,028122;181,42;915,295228;184,48;20990,52246;;;180,6;18597,39924;150,6;4792,926897
176,96;3060,816247;181,56;1059,920026;184,64;21010,7797;;;180,8;19259,00962;150,8;4344,115295
177,2;3314,578457;181,7;1222,53247;184,8;20949,09652;;;181;19892,24288;151;3990,485627
177,44;3547,253944;181,84;1404,540167;184,96;20808,1782;;;181,2;20494,5373;151,2;3715,209078
177,68;3752,085621;181,98;1607,332113;185,12;20591,8326;;;181,4;21064,35681;151,4;3502,072114
177,92;3922,953203;182,12;1832,256289;185,28;20304,88719;;;181,6;21601,08234;151,6;3336,26018
178,16;4054,683828;182,26;2080,595366;185,44;19953,08649;;;181,8;22104,85522;151,8;3204,813121
178,4;4143,318023;182,4;2353,540839;185,6;19542,97344;;;182;22576,38359;152;3096,801044
178,64;4186,311825;182,54;2652,166031;185,76;19081,75818;;;182,2;23016,72492;152,2;3003,288969
178,88;4182,660604;182,68;2977,398442;185,92;18577,17796;;;182,4;23427,05906;152,4;2917,164948
179,12;4132,936275;182,82;3329,992008;186,08;18037,352;;;182,6;23808,46676;152,6;2832,901366
179,36;4039,236315;182,96;3710,499888;186,24;17470,63495;;;182,8;24161,72873;152,8;2746,305967
179,6;3905,049859;183,1;4119,248438;186,4;16885,47234;;;183;24487,15904;153;2654,301372
179,84;3735,052296;183,24;4556,313042;186,56;16290,26112;;;183,2;24784,48477;153,2;2554,753092
180,08;3534,844748;183,38;5021,496499;186,72;15693,21795;;;183,4;25052,78137;153,4;2446,34919
180,32;3310,658156;183,52;5514,31063;186,88;15102,25745;;;183,6;25290,46956;153,6;2328,522071
180,56;3069,043146;183,66;6033,961734;187,04;14524,88211;;;183,8;25495,37594;153,8;2201,395364
180,8;2816,56646;183,8;6579,340478;187,2;13968,08515;;;184;25664,85514;154;2065,736649
181,04;2559,532632;183,94;7149,016691;187,36;13438,26699;;;184,2;25795,9674;154,2;1922,899097
181,28;2303,746136;184,08;7741,239467;187,52;12941,16572;;;184,4;25885,7014;154,4;1774,740518
181,52;2054,324846;184,22;8353,942841;187,68;12481,80159;;;184,6;25931,22857;154,6;1623,51535
181,76;1815,57091;184,36;8984,75716;187,84;12064,43509;;;184,8;25930,17287;154,8;1471,742063
182;1590,900366;184,5;9631,026148;188;11692,53802;;;185;25880,87808;155;1322,05418
182,24;1382,828618;184,64;10289,8295;188,16;11368,77694;;;185,2;25782,65416;155,2;1177,046717
182,48;1193,005454;184,78;10958,01069;188,32;11095,008;;;185,4;25635,98519;155,4;1039,131092
182,72;1022,290806;184,92;11632,20953;188,48;10872,28234;;;185,6;25442,68296;155,6;910,410563
182,96;870,861084;185,06;12308,89888;188,64;10700,86111;;;185,8;25205,9736;155,8;792,5856282
183,2;738,3355159;185,2;12984,42478;188,8;10580,23935;;;186;24930,50845;156;686,8951323
183,44;623,9124187;185,34;13655,04923;188,96;10509,17785;;;186,2;24622,29487;156,2;594,0949515
183,68;526,5064716;185,48;14316,99464;189,12;10485,74232;;;186,4;24288,54769;156,4;514,472605
183,92;444,879652;185,62;14966,48906;189,28;10507,34921;;;186,6;23937,46693;156,6;447,8934589
184,16;377,7602726;185,76;15599,81124;189,44;10570,81766;;;186,8;23577,95208;156,8;393,8725675
184,4;323,9463259;185,9;16213,3344;189,6;10672,42693;;;187;23219,26695;157;351,6656195
184,64;282,3909214;186,04;16803,56806;189,76;10807,97894;;;187,2;22870,67255;157,2;320,3727717
184,88;252,2688864;186,18;17367,19683;189,92;10972,86525;;;187,4;22541,04715;157,4;299,0500551
185,12;233,0245214;186,32;17901,11548;190,08;11162,13802;;;187,6;22238,51351;157,6;286,8241994
185,36;224,4010706;186,46;18402,45973;190,24;11370,58423;;;187,8;21970,09287;157,8;283,0078168
185,6;226,4527101;186,6;18868,63215;190,4;11592,80251;;;188;21741,40358;158;287,2126346
185,84;239,5398725;186,74;19297,32284;190,56;11823,28181;;;188,2;21556,41948;158,2;299,4587002
186,08;264,3086009;186,88;19686,52472;190,72;12056,48086;;;188,4;21417,29979;158,4;320,2770947
186,32;301,6544791;187,02;20034,54341;190,88;12286,90759;;;188,6;21324,29796;158,6;350,8027248
186,56;352,6716211;187,16;20340,00169;191,04;12509,19725;;;188,8;21275,75262;158,8;392,8523172
186,8;418,5873049;187,3;20601,83902;191,2;12718,18821;;;189;21268,15923;159;448,9810373
187,04;500,6831621;187,44;20819,30623;191,36;12908,99415;;;189,2;21296,31696;159,2;522,5094799
187,28;600,204412;187,58;20991,95613;191,52;13077,07145;;;189,4;21353,54159;159,4;617,5114733
187,52;718,2594289;187,72;21119,63051;191,68;13218,28068;;;189,6;21431,93227;159,6;738,752576
187,76;855,7129019;187,86;21202,44409;191,84;13328,94086;;;189,8;21522,67784;159,8;891,5696812
188;1013,076889;188;21240,76632;192;13405,87582;;;190;21616,38724;160;1081,684085
188,24;1190,405062;188,14;21235,20152;192,16;13446,45148;;;190,2;21703,4283;160,2;1314,943897
188,48;1387,196236;188,28;21186,56807;192,32;13448,60356;;;190,4;21774,25967;160,4;1596,996792
188,72;1602,313769;188,42;21095,87741;192,48;13410,85514;;;190,6;21819,7423;160,6;1932,900653
188,96;1833,927455;188,56;20964,31326;192,64;13332,32391;;;190,8;21831,4186;160,8;2326,687117
189,2;2079,484017;188,7;20793,21156;192,8;13212,71894;;;191;21801,75011;161;2780,900841
189,44;2335,711285;188,84;20584,04169;192,96;13052,32742;;;191,2;21724,30728;161,2;3296,144503
189,68;2598,659493;188,98;20338,38907;193,12;12851,99153;;;191,4;21593,90754;161,4;3870,665166
189,92;2863,781069;189,12;20057,93941;193,28;12613,07637;;;191,6;21406,70097;161,6;4500,020758
190,16;3126,047844;189,26;19744,46481;193,44;12337,42977;;;191,8;21160,20502;161,8;5176,865106
190,4;3380,102055;189,4;19399,81149;193,6;12027,33496;;;192;20853,29222;162;5890,885767
190,64;3620,434961;189,54;19025,88923;193,76;11685,45736;;;192,2;20486,1361;162,2;6628,920651
190,88;3841,584692;189,68;18624,66233;193,92;11314,78683;;;192,4;20060,12223;162,4;7375,267427
191,12;4038,343171;189,82;18198,14179;194,08;10918,57667;;;192,6;19577,73149;162,6;8112,184885
191,36;4205,960904;189,96;17748,37851;194,24;10500,28092;;;192,8;19042,40338;162,8;8820,56906
191,6;4340,338121;190,1;17277,4572;194,4;10063,49112;;;193;18458,38659;163;9480,770621
191,84;4438,191332;190,24;16787,49069;194,56;9611,874079;;;193,2;17830,58364;163,2;10073,50557
192,08;4497,185689;190,38;16280,61434;194,72;9149,111783;;;193,4;17164,39583;163,4;10580,80041
192,32;4516,02566;190,52;15758,98031;194,88;8678,844583;;;193,6;16465,57325;163,6;10986,90683
192,56;4494,49911;190,66;15224,75138;195,04;8204,618682;;;193,8;15740,07401;163,8;11279,12084
192,8;4433,472835;190,8;14680,09424;195,2;7729,838701;;;194;14993,93548;164;11448,44685
193,04;4334,84067;190,94;14127,17204;195,36;7257,726007;;;194,2;14233,15944;164,2;11490,05858
193,28;4201,428121;191,08;13568,13609;195,52;6791,283246;;;194,4;13463,6121;164,4;11403,52444
193,52;4036,860035;191,22;13005,1168;195,68;6333,265384;;;194,6;12690,93913;164,6;11192,7835
193,76;3845,399759;191,36;12440,2138;195,84;5886,157342;;;194,8;11920,49544;164,8;10865,87801
194;3631,769505;191,5;11875,48544;196;5452,158199;;;195;11157,28869;165;10434,46678
194,24;3400,962211;191,64;11312,93763;196,16;5033,171721;;;195,2;10405,93562;165,2;9913,159684
194,48;3158,054972;191,78;10754,5125;196,32;4630,802903;;;195,4;9670,629849;165,4;9318,725267
194,72;2908,033281;191,92;10202,07678;196,48;4246,360043;;;195,6;8955,119843;165,6;8669,229744
194,96;2655,633926;192,06;9657,410393;196,64;3880,861823;;;195,8;8262,695974;165,8;7983,167004
195,2;2405,212607;192,2;9122,19538;196,8;3535,048775;;;196;7596,185393;166;7278,635226
195,44;2160,640318;192,34;8598,005428;196,96;3209,398474;;;196,2;6957,953821;166,2;6572,607461
195,68;1925,230522;192,48;8086,296285;197,12;2904,143778;;;196,4;6349,913384;166,4;5880,332205
195,92;1701,697147;192,62;7588,397256;197,28;2619,29344;;;196,6;5773,535729;166,6;5214,886892
196,16;1492,141759;192,76;7105,503982;197,44;2354,654413;;;196,8;5229,869822;166,8;4586,893781
196,4;1298,066849;192,9;6638,672674;197,6;2109,855227;;;197;4719,563824;167;4004,395183
196,64;1120,411178;193,04;6188,81592;197,76;1884,369838;;;197,2;4242,890524;167,2;3472,874345
196,88;959,6025101;193,18;5756,70017;197,92;1677,541432;;;197,4;3799,775815;167,4;2995,400248
197,12;815,6228499;193,32;5342,944921;198,08;1488,605693;;;197,6;3389,829669;167,6;2572,869465
197,36;688,0813953;193,46;4948,02362;198,24;1316,713154;;;197,8;3012,379085;167,8;2204,315918
197,6;576,2908395;193,6;4572,26623;198,4;1160,950294;;;198;2666,502417;168;1887,259748
197,84;479,3432291;193,74;4215,863404;198,56;1020,359112;;;198,2;2351,064514;168,2;1618,06893
198,08;396,1823196;193,88;3878,872126;198,72;893,9549968;;;198,4;2064,752053;168,4;1392,311218
198,32;325,6701381;194,02;3561,222707;198,88;780,7427677;;;198,6;1806,108481;168,6;1205,07887
198,56;266,6462283;194,16;3262,72694;199,04;679,7307991;;;198,8;1573,567995;168,8;1051,273718
198,8;217,9787467;194,3;2983,087263;199,2;589,9432335;;;199;1365,488012;169;925,845149
199,04;178,6071715;194,44;2721,906709;199,36;510,4303026;;;199,2;1180,179678;169,2;823,9779925
199,28;147,5768572;194,58;2478,699447;199,52;440,2768279;;;199,4;1015,935985;169,4;741,2309559
199,52;124,0659913;194,72;2252,901727;199,68;378,609002;;;199,6;871,0572044;169,6;673,62905
199,76;107,4057111;194,86;2043,883006;199,84;324,5995775;;;199,8;743,8733865;169,8;617,7153322
200;97,0942051;195;1850,957091;200;277,4716046;;;200;632,7638017;170;570,5683864
200,24;92,8055911;195,14;1673,393102;200,16;236,5008753;;;200,2;536,1732751;170,2;529,7923679
200,48;94,39424755;195,28;1510,426112;200,32;201,0172337;;;200,4;452,6254534;170,4;493,4863117
200,72;101,895098;195,42;1361,26732;200,48;170,404917;;;200,6;380,7331215;170,6;460,198901
200,96;115,5201464;195,56;1225,113633;200,64;144,1020862;;;200,8;319,2057476;170,8;428,8741478
201,2;135,6513523;195,7;1101,156559;200,8;121,5997009;;;201;266,8544877;171;398,7925805
201,44;162,8297424;195,84;988,5903479;200,96;102,4398842;;;201,2;222,594917;171,2;369,5116399
201,68;197,7405104;195,98;886,6193056;201,12;86,21391131;;;201,4;185,4477757;171,4;340,8081368
201,92;241,1937621;196,12;794,4642684;201,28;72,55994629;;;201,6;154,5380305;171,6;312,6248519
202,16;294,1005447;196,26;711,3682084;201,44;61,16063478;;;201,8;129,0925428;171,8;285,0226797
202,4;357,4438582;196,4;636,6009823;201,6;51,74065121;;;202;108,4366271;172;258,1391555
202,64;432,2444888;196,54;569,4632399;201,76;44,06428301;;;202,2;91,98975414;172,2;232,1537321
202,88;519,5217237;196,68;509,289526;201,92;37,93312312;;;202,4;79,26062979;172,4;207,2598068
203,12;620,2492981;196,82;455,4506222;202,08;33,18392884;;;202,6;69,84184055;172,6;183,6432092
203,36;735,3072659;196,96;407,3551804;202,24;29,68669418;;;202,8;63,40422462;172,8;161,4666494
203,6;865,4308653;197,1;364,4507108;202,4;27,34297132;;;203;59,69108795;173;140,8594765
203,84;1011,15783;197,24;326,2239901;202,56;26,08446714;;;203,2;58,51234903;173,2;121,9120058
204,08;1172,775963;197,38;292,2009589;202,72;25,87193143;;;203,4;59,73866317;173,4;104,6736274
204,32;1350,273084;197,52;261,9461791;202,88;26,69434451;;;203,6;63,29554717;173,6;89,15390455
204,56;1543,291712;197,66;235,0619201;203,04;28,56840434;;;203,8;69,15750092;173,8;75,32590143
204,8;1751,090917;197,8;211,186944;203,2;31,53830579;;;204;77,34210344;174;63,13103677
205,04;1972,517795;197,94;189,9950533;203,36;35,67579776;;;204,2;87,90404835;174,2;52,48483957
205,28;2205,990822;198,08;171,1934634;203,52;41,08049736;;;204,4;100,9290773;174,4;43,28307478
205,52;2449,497032;198,22;154,5210575;203,68;47,88043449;;;204,6;116,5277702;174,6;35,40780734
205,76;2700,604486;198,36;139,7465748;203,84;56,23279377;;;204,8;134,8291573;174,8;28,73307472
206;2956,4909;198,5;126,666779;204;66,32481579;;;205;155,9741303;175;23,12993487
206,24;3213,988595;198,64;115,1046492;204,16;78,37481364;;;205,2;180,1086474;175,2;18,47074588
206,48;3469,645143;198,78;104,9076264;204,32;92,63325597;;;205,4;207,3767463;175,4;14,63261059
206,72;3719,798293;198,92;95,94594782;204,48;109,3838629;;;205,6;237,9134077;175,6;11,49998306
206,96;3960,662988;199,06;88,11109143;204,64;128,9446566;;;205,8;271,8373331;175,8;8,96648257
207,2;4188,42758;199,2;81,3143515;204,8;151,668904;;;206;309,2437309;176;6,935995962
207,44;4399,355769;199,34;75,48555852;204,96;177,9458876;;;206,2;350,1972293;176,2;5,323170212
207,68;4589,890376;199,48;70,57195355;205,12;208,2014337;;;206,4;394,7250577;176,4;4,053407628
207,92;4756,754857;199,62;66,53722234;205,28;242,8981317;;;206,6;442,810657;176,6;3,062476656
208,16;4897,048416;199,76;63,36069064;205,44;282,5351712;;;206,8;494,3878952;176,8;2,295844999
208,4;5008,330825;199,9;61,03667852;205,6;327,6477291;;;207;549,3360702;177;1,707830545
208,64;5088,693439;200,04;59,5740079;205,76;378,8058384;;;207,2;607,475883;177,2;1,260651448
208,88;5136,813536;200,18;58,99565494;205,92;436,6126753;;;207,4;668,5665571;177,4;0,923441347
209,12;5151,98982;200,32;59,33853542;206,08;501,7022047;;;207,6;732,3042629;177,6;0,671280472
209,36;5134,157831;200,46;60,65340937;206,24;574,7361346;;;207,8;798,3219822;177,8;0,484279213
209,6;5083,884885;200,6;63,00488827;206,4;656,4001339;;;208;866,1909152;178;0,346738269
209,84;5002,345117;200,74;66,47152646;206,56;747,3992833;;;208,2;935,4234943;178,2;0,246399125
210,08;4891,27605;200,88;71,14597602;206,72;848,4527388;;;208,4;1005,478022;178,4;0,173790306
210,32;4752,918889;201,02;77,13518309;206,88;960,2876006;;;208,6;1075,764903;178,6;0,121668665
210,56;4589,945377;201,16;84,56060161;207,04;1083,631997;;;208,8;1145,65439;178,8;0,084550619
210,8;4405,374514;201,3;93,55839934;207,2;1219,207413;;;209;1214,485708;179;0,058325436
211,04;4202,482736;201,44;104,27963;207,36;1367,720293;;;209,2;1281,577379;179,2;0,03994119
211,28;3984,711214;201,58;116,890344;207,52;1529,853004;;;209,4;1346,238508;179,4;0,027153455
211,52;3755,573882;201,72;131,5716108;207,68;1706,254209;;;209,6;1407,78078;179,6;0,01832698
211,76;3518,569508;201,86;148,519424;207,84;1897,528767;;;209,8;1465,530855;179,8;0,012281248
212;3277,100755;202;167,9444613;208;2104,227272;;;210;1518,842849;180;0,008171704
212,24;3034,402642;202,14;190,0716739;208,16;2326,835354;;;210,2;1567,110569;180,2;0,005399537
212,48;2793,482255;202,28;215,1396751;208,32;2565,762897;;;210,4;1609,779168;180,4;0,003543957
212,72;2557,070933;202,42;243,399908;208,48;2821,333319;;;210,6;1646,355909;180,6;0,002311934
212,96;2327,58953;202,56;275,115565;208,64;3093,773096;;;210,8;1676,419739;180,8;0,001501341
213,2;2107,126767;202,7;310,560242;208,8;3383,201697;;;211;1699,629407;181;0,000974246
213,44;1897,430168;202,84;350,0163082;208,96;3689,622109;;;211,2;1715,729926;181,2;0,000637815
213,68;1699,908601;202,98;393,7729786;209,12;4012,912131;;;211,4;1724,557188;181,4;0,00043089
213,92;1515,645101;203,12;442,124081;209,28;4352,816622;;;211,6;1726,040637;181,6;0,000314783
214,16;1345,418376;203,26;495,3655118;209,44;4708,940859;;;211,8;1720,20395;181,8;0,000267231
214,4;1189,731236;203,4;553,7923826;209,6;5080,745178;;;212;1707,163722;182;0,000278773
214,64;1048,844111;203,54;617,6958656;209,76;5467,541033;;;212,2;1687,126231;182,2;0,00035109
214,88;922,8118386;203,68;687,3597498;209,92;5868,488615;;;212,4;1660,382407;182,4;0,000497046
215,12;811,5219722;203,82;763,0567293;210,08;6282,596114;;;212,6;1627,301183;182,6;0,000742394
215,36;714,7330251;203,96;845,044451;210,24;6708,720746;;;212,8;1588,321424;182,8;0,001129262
215,6;632,1112237;204,1;933,5613547;210,4;7145,571564;;;213;1543,942718;183;0,001721744
215,84;563,2645693;204,24;1028,822348;210,56;7591,714115;;;213,2;1494,715271;183,2;0,002614072
216,08;507,773232;204,38;1131,014364;210,72;8045,576934;;;213,4;1441,229221;183,4;0,003942065
216,32;465,2155288;204,52;1240,291853;210,88;8505,459848;;;213,6;1384,103655;183,6;0,005898771
216,56;435,1889677;204,66;1356,772274;211,04;8969,544037;;;213,8;1323,975616;183,8;0,008755429
216,8;417,3260535;204,8;1480,531646;211,2;9435,903771;;;214;1261,489384;184;0,012889173
217,04;411,3047489;204,94;1611,60023;211,36;9902,519709;;;214,2;1197,286274;184,2;0,018819138
217,28;416,8536687;205,08;1749,958421;211,52;10367,29362;;;214,4;1131,995184;184,4;0,027252918
217,52;433,752243;205,22;1895,532912;211,68;10828,06437;;;214,6;1066,224067;184,6;0,039145588
217,76;461,8262282;205,36;2048,193218;211,84;11282,62499;;;214,8;1000,552491;184,8;0,055773703
218;500,9390649;205,5;2207,748634;212;11728,74063;;;215;935,5253882;185;0,078826849
218,24;550,9796878;205,64;2373,945696;212,16;12164,16717;;;215,2;871,6480557;185,2;0,11051935
218,48;611,8474738;205,78;2546,466212;212,32;12586,67027;;;215,4;809,3824429;185,4;0,15372462
218,72;683,435085;205,92;2724,925942;212,48;12994,04465;;;215,6;749,1447059;185,6;0,212134306
218,96;765,6100088;206,06;2908,87397;212,64;13384,13335;;;215,8;691,303983;185,8;0,290443779
219,2;858,1956259;206,2;3097,792826;212,8;13754,84665;;;216;636,1823109;186;0,39456464
219,44;960,9526492;206,34;3291,099402;212,96;14104,18064;;;216,2;584,0555756;186,2;0,531863597
219,68;1073,561755;206,48;3488,146679;213,12;14430,23488;;;216,4;535,1553704;186,4;0,711425441
219,92;1195,608199;206,62;3688,226298;213,28;14731,22933;;;216,6;489,6716166;186,6;0,944335757
220,16;1326,569135;206,76;3890,571975;213,44;15005,52001;;;216,8;447,7557946;186,8;1,243976538
220,4;1465,804289;206,9;4094,363745;213,6;15251,6134;;;217;409,5246251;187;1,626325064
220,64;1612,550493;207,04;4298,733028;213,76;15468,17937;;;217,2;375,0640419;187,2;2,110243345
220,88;1765,920494;207,18;4502,768462;213,92;15654,06246;;;217,4;344,4333013;187,4;2,717742235
221,12;1924,906259;207,32;4705,522473;214,08;15808,29148;;;217,6;317,6690821;187,6;3,474201235
221,36;2088,386859;207,46;4906,018508;214,24;15930,0872;;;217,8;294,7894407;187,8;4,408522171
221,6;2255,140821;207,6;5103,258852;214,4;16018,86825;;;218;275,797502;188;5,553192716
221,84;2423,86265;207,74;5296,232951;214,56;16074,25492;;;218,2;260,6847818;188,2;6,944234318
222,08;2593,183085;207,88;5483,926139;214,72;16096,07113;;;218,4;249,4340562;188,4;8,621008927
222,32;2761,692443;208,02;5665,328656;214,88;16084,34439;;;218,6;242,0217108;188,6;10,6258601
222,56;2927,966293;208,16;5839,444852;215,04;16039,30374;;;218,8;238,4195246;188,8;13,00356709
222,8;3090,592597;208,3;6005,302452;215,2;15961,37594;;;219;238,5958613;189;15,80059524
223,04;3248,199347;208,44;6161,961757;215,36;15851,17976;;;219,2;242,5162612;189,2;19,06413292
223,28;3399,481718;208,58;6308,524667;215,52;15709,51853;;;219,4;250,1434442;189,4;22,84091386
223,52;3543,227744;208,72;6444,143386;215,68;15537,37117;;;219,6;261,4367546;189,6;27,17583419
223,76;3678,341583;208,86;6568,028703;215,84;15335,88165;;;219,8;276,3510908;189,8;32,11038519
224;3803,86351;209;6679,457732;216;15106,34715;;;220;294,8353809;190;37,68093577
224,24;3918,985929;209,14;6777,780998;216,16;14850,20506;;;220,2;316,8306755;190,2;43,91691106
224,48;4023,064824;209,28;6862,428773;216,32;14569,01892;;;220,4;342,2679415;190,4;50,83892631
224,72;4115,626301;209,42;6932,91658;216,48;14264,46355;;;220,6;371,0656478;190,6;58,456946
224,96;4196,368017;209,56;6988,84979;216,64;13938,30952;;;220,8;403,1272401;190,8;66,76854665
225,2;4265,155569;209,7;7029,92724;216,8;13592,40715;;;221;438,3386066;191;75,75736757
225,44;4322,014058;209,84;7055,943846;216,96;13228,67015;;;221,2;476,5656363;191,2;85,39183528
225,68;4367,115294;209,98;7066,792163;217,12;12849,0593;;;221,4;517,6519714;191,4;95,62424461
225,92;4400,761247;210,12;7062,462895;217,28;12455,56603;;;221,6;561,4170496;191,6;106,3902721
226,16;4423,364488;210,26;7043,044336;217,44;12050,19637;;;221,8;607,6545283;191,8;117,6089846
226,4;4435,4265;210,4;7008,720788;217,6;11634,95524;;;222;656,1311697;192;129,1833904
226,64;4437,514763;210,54;6959,769957;217,76;11211,83134;;;222,2;706,5862592;192,2;141,0015564
226,88;4430,239565;210,68;6896,559405;217,92;10782,78272;;;222,4;758,7316128;192,4;152,9382957
227,12;4414,23146;210,82;6819,542103;218,08;10349,72321;;;222,6;812,2522155;192,6;164,8573994
227,36;4390,120222;210,96;6729,251152;218,24;9914,509773;;;222,8;866,8075163;192,8;176,6143629
227,6;4358,516052;211,1;6626,293778;218,4;9478,930927;;;223;922,0333882;193;188,0595314
227,84;4319,993661;211,24;6511,344672;218,56;9044,69631;;;223,2;977,5447426;193,2;199,0415658
228,08;4275,079702;211,38;6385,138784;218,72;8613,427411;;;223,4;1032,938771;193,4;209,4111114
228,32;4224,243834;211,52;6248,463683;218,88;8186,649573;;;223,6;1087,798768;193,6;219,0245387
228,56;4167,893565;211,66;6102,15157;219,04;7765,785258;;;223,8;1141,698472;193,8;227,7476181
228,8;4106,372804;211,8;5947,071084;219,2;7352,148606;;;224;1194,206849;194;235,4589876
229,04;4039,963928;211,94;5784,118981;219,36;6946,941281;;;224,2;1244,893226;194,2;242,0532824
229,28;3968,892998;212,08;5614,211808;219,52;6551,249574;;;224,4;1293,332672;194,4;247,4438042
229,52;3893,337662;212,22;5438,277682;219,68;6166,042749;;;224,6;1339,111514;194,6;251,5646307
229,76;3813,437173;212,36;5257,24825;219,84;5792,172562;;;224,8;1381,832879;194,8;254,3720869
230;3729,303902;212,5;5072,050939;220;5430,373905;;;225;1421,122131;195;255,84553
230,24;3641,035693;212,64;4883,601578;220,16;5081,266499;;;225,2;1456,632098;195,2;255,9874277
230,48;3548,728418;212,78;4692,797447;220,32;4745,357557;;;225,4;1488,047964;195,4;254,8227429
230,72;3452,488097;212,92;4500,510849;220,48;4423,045325;;;225,6;1515,091725;195,6;252,3976638
230,96;3352,442056;213,06;4307,58322;220,64;4114,623406;;;225,8;1537,526107;195,8;248,7777479
231,2;3248,74862;213,2;4114,819858;220,8;3820,285772;;;226;1555,157868;196;244,0455694
231,44;3141,604967;213,34;3922,985274;220,96;3540,132359;;;226,2;1567,840409;196,2;238,297977
231,68;3031,252876;213,48;3732,799206;221,12;3274,175143;;;226,4;1575,475635;196,4;231,6430809
231,92;2917,982193;213,62;3544,93329;221,28;3022,344593;;;226,6;1578,015044;196,6;224,1970917
232,16;2802,131962;213,76;3360,00841;221,44;2784,496407;;;226,8;1575,460015;196,8;216,0811346
232,4;2684,089281;213,9;3178,5927;221,6;2560,418431;;;227;1567,861297;197;207,4181547
232,64;2564,286009;214,04;3001,200188;221,76;2349,837671;;;227,2;1555,317725;197,2;198,330015
232,88;2443,193564;214,18;2828,290063;221,92;2152,427307;;;227,4;1537,974192;197,4;188,9348773
233,12;2321,316093;214,32;2660,266527;222,08;1967,813643;;;227,6;1516,018933;197,6;179,3449326
233,36;2199,182351;214,46;2497,479195;222,24;1795,582901;;;227,8;1489,680192;197,8;169,66453
233,6;2077,336656;214,6;2340,223999;222,4;1635,28782;;;228;1459,222337;198;159,98873
233,84;1956,329293;214,74;2188,744564;222,56;1486,453982;;;228,2;1424,941536;198,2;150,4022899
234,08;1836,706744;214,88;2043,233978;222,72;1348,585824;;;228,4;1387,161056;198,4;140,9790671
234,32;1719,002083;215,02;1903,83694;222,88;1221,172309;;;228,6;1346,226325;198,6;131,7818138
234,56;1603,725876;215,16;1770,652204;223,04;1103,692203;;;228,8;1302,49982;198,8;122,8623202
234,8;1491,357832;215,3;1643,735281;223,2;995,6189504;;;229;1256,355909;199;114,2618547
235,04;1382,339456;215,44;1523,101355;223,36;896,4251318;;;229,2;1208,175737;199,2;106,0118461
235,28;1277,067872;215,58;1408,728339;223,52;805,5864816;;;229,4;1158,342239;199,4;98,13474507
235,52;1175,890915;215,72;1300,560049;223,68;722,5854799;;;229,6;1107,235381;199,6;90,64500914
235,76;1079,103581;215,86;1198,509436;223,84;646,9145115;;;229,8;1055,227687;199,8;83,55015264
236;986,9458297;216;1102,461833;224;578,0786046;;;230;1002,680134;200;76,8518139
236,24;899,601702;216,14;1012,278193;224,16;515,5977625;;;230,2;949,9384469;200,2;70,5467957
236,48;817,199693;216,28;927,7982576;224,32;459,0089049;;;230,4;897,329863;200,4;64,62804484
236,72;739,8142546;216,42;848,8436573;224,48;407,8674403;;;230,6;845,160364;200,6;59,08554492
236,96;667,4683022;216,56;775,2208851;224,64;361,7484914;;;230,8;793,7124171;200,8;53,90710465
237,2;600,1365703;216,7;706,7241427;224,8;320,2478003;;;231;743,2432169;201;49,07903241
237,44;537,7496534;216,84;643,1380295;224,96;282,9823387;;;231,2;693,9834285;201,2;44,58669449
237,68;480,198566;216,98;584,2400631;225,12;249,5906507;;;231,4;646,1364134;201,4;40,41496047
237,92;427,339657;217,12;529,8030185;225,28;219,7329558;;;231,6;599,8779166;201,6;36,54854394
238,16;378,9997215;217,26;479,5970787;225,44;193,0910403;;;231,8;555,3561813;201,8;32,97224999
238,4;334,9811664;217,4;433,391792;225,6;169,3679622;;;232;512,6924545;202;29,67114313
238,64;295,0671006;217,54;390,9578341;225,76;148,287598;;;232,2;471,9818417;202,2;26,63065026
238,88;259,0262378;217,68;352,068577;225,92;129,594054;;;232,4;433,294463;202,4;23,83661317
239,12;226,6175213;217,82;316,501466;226,08;113,0509671;;;232,6;396,6768663;202,6;21,27530446
239,36;197,5943961;217,96;284,0392133;226,24;98,44071649;;;232,8;362,1536465;202,8;18,93341918
239,6;171,7086764;218,1;254,4708125;226,4;85,56356612;;;233;329,7292242;203;16,79805269
239,84;148,7139716;218,24;227,5923849;226,56;74,23675748;;;233,2;299,3897388;203,2;14,85667346
240,08;128,368653;218,38;203,2078657;226,72;64,29356807;;;233,4;271,1050104;203,4;13,09709704
240,32;110,438356;218,52;181,1295431;226,88;55,58235147;;;233,6;244,830532;203,6;11,50746585
240,56;94,69802769;218,66;161,1784584;227,04;47,96557143;;;233,8;220,5094537;203,8;10,07623732
240,8;80,93353875;218,8;143,1846826;227,2;41,31884173;;;234;198,0745271;204;8,792181662
241,04;68,94288687;218,94;126,9874784;227,36;35,52998132;;;234,2;177,4499826;204,2;7,644388903
241,28;58,5370265;219,08;112,4353608;227,52;30,49809288;;;234,4;158,5533134;204,4;6,622284246
241,52;49,54036272;219,22;99,38606855;227,68;26,13267156;;;234,6;141,2969506;204,6;5,71564995
241,76;41,79095002;219,36;87,70645604;227,84;22,35274911;;;234,8;125,5898113;204,8;4,914651615
242;35,14043758;219,5;77,2723187;228;19,08607756;;;235;111,3387122;205;4,209866612
242,24;29,45380225;219,64;67,96816055;228,16;16,26835548;;;235,2;98,44963959;205,2;3,592312494
242,48;24,60890862;219,78;59,68691463;228,32;13,84249865;;;235,4;86,82887453;205,4;3,053473389
242,72;20,49593346;219,92;52,32962495;228,48;11,75795647;;;235,6;76,38397226;205,6;2,585322737
242,96;17,01668848;220,06;45,80509853;228,64;9,970074396;;;235,8;67,02459927;205,8;2,180341091
243,2;14,08387221;220,2;40,029535;228,8;8,439502163;;;236;58,66323288;206;1,831528083
243,44;11,62027774;220,34;34,92614063;228,96;7,131646973;;;236,2;51,21573048;206,2;1,532408104
243,68;9,557979591;220,48;30,42473304;229,12;6,016170494;;;236,4;44,6017771;206,4;1,277029546
243,92;7,837519315;220,62;26,46134183;229,28;5,066528017;;;236,6;38,74522073;206,6;1,059957811
244,16;6,407105514;220,76;22,9778099;229,44;4,259547953;;;236,8;33,57430586;206,8;0,876262531
244,4;5,221841153;220,9;19,92139956;229,6;3,575049592;;;237;29,02181602;207;0,721499654
244,64;4,242987683;221,04;17,2444067;229,76;2,995496937;;;237,2;25,02513616;207,2;0,591689157
244,88;3,43727298;221,18;14,90378601;229,92;2,505686326;;;237,4;21,52624555;207,4;0,483289251
245,12;2,776247722;221,32;12,86078934;230,08;2,092465525;;;237,6;18,47165173;207,6;0,39316796
245,36;2,235692829;221,46;11,08061925;230,24;1,744481962;;;237,8;15,81227544;207,8;0,318572915
245,6;1,795078962;221,6;9,53209887;230,4;1,45195783;;;238;13,5032956;208;0,257100195
245,84;1,437077683;221,74;8,187359174;230,56;1,20648982;;;238,2;11,50396317;208,2;0,206662928
246,08;1,147122875;221,88;7,021544212;230,72;1,000871342;;;238,4;9,777391489;208,4;0,165460295
246,32;0,913020148;222,02;6,012534649;230,88;0,828935196;;;238,6;8,290330104;208,6;0,131947466
246,56;0,724601462;222,16;5,14068962;231,04;0,685414745;;;238,8;7,012928216;208,8;0,104806897
246,8;0,573421727;222,3;4,388606741;231,2;0,565821765;;;239;5,918493038;209;0,082921316
247,04;0,452493993;222,44;3,740899904;231,36;0,46633929;;;239,2;4,983247587;209,2;0,065348616
247,28;0,356059718;222,58;3,183994336;231,52;0,383727858;;;239,4;4,186091692;209,4;0,0512988
247,52;0,279390607;222,72;2,705938296;231,68;0,315243708;;;239,6;3,508369284;209,6;0,04011305
247,76;0,218618668;222,86;2,296230668;231,84;0,258567606;;;239,8;2,93364441;209,8;0,031244901
248;0,170591226;223;1,94566365;232;0,211743069;;;240;2,447487827;210;0,024243493
248,24;0,13274789;223,14;1,646179704;232,16;0,173122897;;;240,2;2,037275533;210,2;0,018738792
248,48;0,103016668;223,28;1,390741881;232,32;0,141323;;;240,4;1,692000139;210,4;0,014428671
248,72;0,079726689;223,42;1,173216638;232,48;0,11518264;;;240,6;1,402095593;210,6;0,011067705
248,96;0,06153521;223,56;0,988268267;232,64;0,093730269;;;240,8;1,159275458;210,8;0,008457531
249,2;0,047366874;223,7;0,831264057;232,8;0,076154252;;;241;0,956384663;211;0,006438621
249,44;0,036363371;223,84;0,698189344;232,96;0,061777841;;;241,2;0,787264446;211,2;0,004883305
249,68;0,027841922;223,98;0,585571633;233,12;0,050037819;;;241,4;0,646630003;211,4;0,003689905
249,92;0,02126117;224,12;0,490412998;233,28;0,040466337;;;241,6;0,529960279;211,6;0,002777829
250,16;0,016193293;224,26;0,410130022;233,44;0,032675488;;;241,8;0,433399192;211,8;0,002083501
250,4;0,012301283;224,4;0,342500576;233,6;0,026344245;;;242;0,353667547;212;0,001557
250,64;0,009320517;224,54;0,285616771;233,76;0,021207412;;;242,2;0,287984861;212,2;0,001159308
250,88;0,007043865;224,68;0,237843479;233,92;0,017046321;;;242,4;0,234000303;212,4;0,000860069
251,12;0,005309706;224,82;0,197781841;234,08;0,013680989;;;242,6;0,189731938;212,6;0,000635771
251,36;0,003992321;224,96;0,164237255;234,24;0,010963543;;;242,8;0,153513528;212,8;0,000468286
251,6;0,002994214;225,1;0,136191341;234,4;0,008772709;;;243;0,123948123;213;0,000343694
251,84;0,002240008;225,24;0,112777464;234,56;0,007009204;;;243,2;0,09986774;213,2;0,000251358
252,08;0,0016716;225,38;0,093259397;234,72;0,005591889;;;243,4;0,080298476;213,4;0,000183182
252,32;0,001244338;225,52;0,077012773;234,88;0,004454573;;;243,6;0,06443043;213,6;0,00013303
252,56;0,000924005;225,66;0,063508994;235,04;0,00354335;;;243,8;0,051591862;213,8;9,63E-05
252,8;0,000684458;225,8;0,052301292;235,2;0,002814396;;;244;0,041227082;214;6,94E-05
253,04;0,000505781;225,94;0,043012703;235,36;0,002232145;;;244,2;0,032877589;214,2;4,99E-05
253,28;0,000372846;226,08;0,035325684;235,52;0,001767779;;;244,4;0,026166043;214,4;3,57E-05
253,52;0,00027419;226,22;0,028973191;235,68;0,001397993;;;244,6;0,020782679;214,6;2,55E-05
253,76;0,000201158;226,36;0,023731018;235,84;0,001103968;;;244,8;0,016473851;214,8;1,82E-05
254;0,000147229;226,5;0,01941123;236;0,000870531;;;245;0,013032372;215;1,29E-05
254,24;0,000107504;226,64;0,015856553;236,16;0,000685475;;;245,2;0,010289428;215,2;0,000009094
254,48;7,83E-05;226,78;0,012935578;236,32;0,000538991;;;245,4;0,008107799;215,4;0,000006405
254,72;5,69E-05;226,92;0,01053869;236,48;0,00042321;;;245,6;0,00637622;215,6;4,50E-06
254,96;4,13E-05;227,06;0,008574592;236,64;0,000331832;;;245,8;0,005004685;215,8;0,000003146
255,2;2,99E-05;227,2;0,006967367;236,8;0,000259819;;;246;0,003920559;216;2,19E-06
255,44;2,16E-05;227,34;0,005653984;236,96;0,00020315;;;246,2;0,003065359;216,2;1,53E-06
255,68;1,55E-05;227,48;0,004582194;237,12;0,00015862;;;246,4;0,002392112;216,4;1,06E-06
255,92;1,12E-05;227,62;0,00370875;237,28;0,000123679;;;246,6;0,001863172;216,6;0,00000073
256,16;7,99E-06;227,76;0,002997915;237,44;9,63E-05;;;246,8;0,001448438;216,8;5,03E-07
256,4;0,000005719;227,9;0,002420198;237,6;7,49E-05;;;247;0,001123898;217;3,45E-07
256,64;0,000004082;228,04;0,001951303;237,76;5,81E-05;;;247,2;0,000870439;217,2;0,000000236
256,88;2,91E-06;228,18;0,001571241;237,92;4,51E-05;;;247,4;0,000672882;217,4;0,000000161
257,12;2,07E-06;228,32;0,001263594;238,08;3,49E-05;;;247,6;0,000519197;217,6;1,09E-07
257,36;1,46E-06;228,46;0,001014895;238,24;2,70E-05;;;247,8;0,000399875;217,8;7,42E-08
257,6;1,04E-06;228,6;0,000814115;238,4;2,09E-05;;;248;0,000307409;218;5,01E-08
257,84;7,32E-07;228,74;0,000652235;238,56;1,61E-05;;;248,2;0,000235894;218,2;3,38E-08
258,08;5,16E-07;228,88;0,000521889;238,72;1,24E-05;;;248,4;0,000180687;218,4;2,27E-08
258,32;3,63E-07;229,02;0,00041707;238,88;9,53E-06;;;248,6;0,00013815;218,6;1,52E-08
258,56;2,54E-07;229,16;0,00033289;239,04;7,32E-06;;;248,8;0,000105437;218,8;1,01E-08
258,8;1,78E-07;229,3;0,000265372;239,2;0,000005618;;;249;8,03E-05;219;6,70E-09
259,04;1,24E-07;229,44;0,000211287;239,36;4,30E-06;;;249,2;6,11E-05;219,2;4,50E-09
259,28;8,67E-08;229,58;0,000168019;239,52;0,000003294;;;249,4;4,64E-05;219,4;0,000000003
259,52;6,04E-08;229,72;0,000133448;239,68;2,52E-06;;;249,6;3,51E-05;219,6;0,000000002
259,76;4,19E-08;229,86;0,000105861;239,84;1,92E-06;;;249,8;2,66E-05;219,8;1,30E-09
